Sample Number (10000 samples per second),UNIX Timestamp (Milliseconds since 1970-01-01),C1 (),C2 ()
0,1685095701139,493.0,443.0
1,1685095701144,476.0,433.0
2,1685095701144,469.0,430.0
3,1685095701144,468.0,432.0
4,1685095701144,476.0,442.0
5,1685095701144,473.0,449.0
6,1685095701144,472.0,456.0
7,1685095701144,402.0,376.0
8,1685095701144,499.0,454.0
9,1685095701144,462.0,436.0
10,1685095701144,375.0,401.0
11,1685095701144,406.0,389.0
12,1685095701144,403.0,421.0
13,1685095701144,413.0,434.0
14,1685095701144,361.0,443.0
15,1685095701144,467.0,457.0
16,1685095701144,408.0,483.0
17,1685095701144,470.0,427.0
18,1685095701144,431.0,470.0
19,1685095701144,484.0,432.0
20,1685095701144,462.0,445.0
21,1685095701144,461.0,437.0
22,1685095701144,426.0,399.0
23,1685095701144,511.0,453.0
24,1685095701144,404.0,410.0
25,1685095701144,406.0,385.0
26,1685095701144,463.0,424.0
27,1685095701144,398.0,422.0
28,1685095701144,384.0,410.0
29,1685095701144,375.0,419.0
30,1685095701144,464.0,475.0
31,1685095701144,394.0,467.0
32,1685095701144,474.0,434.0
33,1685095701144,420.0,479.0
34,1685095701144,480.0,423.0
35,1685095701144,438.0,460.0
36,1685095701145,473.0,429.0
37,1685095701145,456.0,410.0
38,1685095701145,489.0,464.0
39,1685095701145,388.0,370.0
40,1685095701145,485.0,436.0
41,1685095701145,478.0,445.0
42,1685095701145,378.0,400.0
43,1685095701145,414.0,409.0
44,1685095701145,404.0,423.0
45,1685095701145,424.0,444.0
46,1685095701145,367.0,452.0
47,1685095701145,463.0,451.0
48,1685095701145,415.0,492.0
49,1685095701145,472.0,421.0
50,1685095701145,424.0,477.0
51,1685095701145,485.0,419.0
52,1685095701145,469.0,450.0
53,1685095701145,462.0,443.0
54,1685095701145,412.0,373.0
55,1685095701145,522.0,475.0
56,1685095701145,426.0,426.0
57,1685095701145,394.0,391.0
58,1685095701145,460.0,429.0
59,1685095701145,408.0,420.0
60,1685095701145,383.0,411.0
61,1685095701145,359.0,417.0
62,1685095701145,467.0,468.0
63,1685095701147,391.0,469.0
64,1685095701147,465.0,433.0
65,1685095701147,422.0,471.0
66,1685095701147,485.0,430.0
67,1685095701147,452.0,461.0
68,1685095701147,463.0,432.0
69,1685095701147,452.0,400.0
70,1685095701147,514.0,484.0
71,1685095701147,390.0,381.0
72,1685095701147,463.0,428.0
73,1685095701147,488.0,441.0
74,1685095701147,382.0,415.0
75,1685095701147,390.0,402.0
76,1685095701147,395.0,424.0
77,1685095701147,435.0,455.0
78,1685095701147,351.0,440.0
79,1685095701147,476.0,447.0
80,1685095701147,423.0,496.0
81,1685095701147,482.0,423.0
82,1685095701147,441.0,468.0
83,1685095701147,485.0,425.0
84,1685095701147,472.0,427.0
85,1685095701147,467.0,465.0
86,1685095701147,398.0,362.0
87,1685095701147,501.0,476.0
88,1685095701147,425.0,418.0
89,1685095701147,376.0,404.0
90,1685095701147,436.0,417.0
91,1685095701147,408.0,415.0
92,1685095701147,386.0,427.0
93,1685095701147,369.0,430.0
94,1685095701147,486.0,469.0
95,1685095701147,406.0,479.0
96,1685095701147,474.0,422.0
97,1685095701147,436.0,485.0
98,1685095701147,480.0,425.0
99,1685095701147,448.0,448.0
100,1685095701147,464.0,423.0
101,1685095701147,441.0,395.0
102,1685095701147,502.0,477.0
103,1685095701147,398.0,378.0
104,1685095701147,453.0,417.0
105,1685095701147,492.0,449.0
106,1685095701147,396.0,422.0
107,1685095701147,392.0,415.0
108,1685095701147,380.0,415.0
109,1685095701147,458.0,472.0
110,1685095701147,366.0,451.0
111,1685095701147,473.0,434.0
112,1685095701147,416.0,486.0
113,1685095701147,475.0,429.0
114,1685095701147,433.0,464.0
115,1685095701147,474.0,420.0
116,1685095701147,471.0,430.0
117,1685095701147,481.0,461.0
118,1685095701147,398.0,367.0
119,1685095701147,507.0,458.0
120,1685095701147,451.0,437.0
121,1685095701147,378.0,401.0
122,1685095701147,422.0,415.0
123,1685095701147,407.0,430.0
124,1685095701147,400.0,432.0
125,1685095701147,340.0,427.0
126,1685095701147,467.0,459.0
127,1685095701147,390.0,484.0
128,1685095701147,469.0,421.0
129,1685095701147,424.0,473.0
130,1685095701147,488.0,432.0
131,1685095701147,464.0,451.0
132,1685095701147,462.0,430.0
133,1685095701147,452.0,394.0
134,1685095701147,524.0,481.0
135,1685095701147,401.0,408.0
136,1685095701147,428.0,397.0
137,1685095701147,481.0,425.0
138,1685095701147,393.0,424.0
139,1685095701147,369.0,389.0
140,1685095701147,368.0,424.0
141,1685095701147,450.0,456.0
142,1685095701147,370.0,458.0
143,1685095701147,477.0,432.0
144,1685095701147,424.0,490.0
145,1685095701147,492.0,424.0
146,1685095701147,448.0,470.0
147,1685095701147,477.0,422.0
148,1685095701147,470.0,431.0
149,1685095701147,484.0,457.0
150,1685095701147,394.0,373.0
151,1685095701147,491.0,444.0
152,1685095701147,456.0,442.0
153,1685095701147,372.0,397.0
154,1685095701147,404.0,395.0
155,1685095701147,405.0,429.0
156,1685095701147,430.0,444.0
157,1685095701147,361.0,437.0
158,1685095701147,476.0,449.0
159,1685095701147,415.0,484.0
160,1685095701147,472.0,428.0
161,1685095701147,424.0,466.0
162,1685095701147,481.0,427.0
163,1685095701147,454.0,440.0
164,1685095701147,464.0,436.0
165,1685095701147,420.0,383.0
166,1685095701147,515.0,464.0
167,1685095701147,406.0,401.0
168,1685095701147,397.0,395.0
169,1685095701147,476.0,436.0
170,1685095701147,408.0,431.0
171,1685095701147,381.0,413.0
172,1685095701147,371.0,413.0
173,1685095701147,467.0,465.0
174,1685095701147,391.0,470.0
175,1685095701147,469.0,441.0
176,1685095701147,412.0,470.0
177,1685095701147,478.0,420.0
178,1685095701147,444.0,453.0
179,1685095701147,470.0,432.0
180,1685095701147,463.0,411.0
181,1685095701147,495.0,467.0
182,1685095701147,392.0,380.0
183,1685095701147,493.0,444.0
184,1685095701147,485.0,454.0
185,1685095701147,388.0,412.0
186,1685095701147,395.0,409.0
187,1685095701147,395.0,425.0
188,1685095701147,435.0,445.0
189,1685095701147,348.0,443.0
190,1685095701147,462.0,441.0
191,1685095701147,406.0,479.0
192,1685095701147,472.0,431.0
193,1685095701147,442.0,474.0
194,1685095701147,487.0,423.0
195,1685095701147,469.0,447.0
196,1685095701147,471.0,442.0
197,1685095701147,416.0,377.0
198,1685095701147,526.0,467.0
199,1685095701147,415.0,418.0
200,1685095701147,380.0,385.0
201,1685095701147,450.0,415.0
202,1685095701147,410.0,439.0
203,1685095701147,382.0,418.0
204,1685095701147,343.0,411.0
205,1685095701147,465.0,453.0
206,1685095701147,396.0,483.0
207,1685095701147,469.0,436.0
208,1685095701147,433.0,484.0
209,1685095701147,490.0,430.0
210,1685095701147,450.0,461.0
211,1685095701147,469.0,419.0
212,1685095701147,464.0,418.0
213,1685095701147,499.0,455.0
214,1685095701147,381.0,388.0
215,1685095701147,473.0,419.0
216,1685095701147,479.0,445.0
217,1685095701147,389.0,405.0
218,1685095701147,390.0,411.0
219,1685095701147,418.0,441.0
220,1685095701147,452.0,454.0
221,1685095701147,356.0,453.0
222,1685095701147,472.0,450.0
223,1685095701147,412.0,493.0
224,1685095701147,467.0,414.0
225,1685095701147,436.0,468.0
226,1685095701147,475.0,421.0
227,1685095701147,466.0,433.0
228,1685095701147,473.0,447.0
229,1685095701147,402.0,371.0
230,1685095701147,522.0,471.0
231,1685095701147,428.0,421.0
232,1685095701147,383.0,402.0
233,1685095701147,438.0,417.0
234,1685095701147,415.0,434.0
235,1685095701147,407.0,447.0
236,1685095701147,357.0,413.0
237,1685095701147,479.0,460.0
238,1685095701147,399.0,476.0
239,1685095701147,457.0,415.0
240,1685095701147,413.0,476.0
241,1685095701147,477.0,424.0
242,1685095701147,455.0,463.0
243,1685095701147,464.0,425.0
244,1685095701147,454.0,400.0
245,1685095701147,514.0,481.0
246,1685095701147,406.0,398.0
247,1685095701147,453.0,425.0
248,1685095701147,487.0,454.0
249,1685095701147,387.0,412.0
250,1685095701147,378.0,408.0
251,1685095701147,384.0,415.0
252,1685095701147,443.0,458.0
253,1685095701147,368.0,446.0
254,1685095701147,471.0,451.0
255,1685095701147,418.0,481.0
256,1685095701147,480.0,438.0
257,1685095701147,452.0,472.0
258,1685095701147,481.0,427.0
259,1685095701147,465.0,438.0
260,1685095701147,475.0,454.0
261,1685095701147,396.0,379.0
262,1685095701147,505.0,461.0
263,1685095701147,439.0,425.0
264,1685095701147,370.0,401.0
265,1685095701147,416.0,388.0
266,1685095701147,413.0,436.0
267,1685095701157,404.0,430.0
268,1685095701157,358.0,426.0
269,1685095701157,470.0,461.0
270,1685095701157,411.0,483.0
271,1685095701157,472.0,439.0
272,1685095701157,437.0,471.0
273,1685095701157,480.0,441.0
274,1685095701157,451.0,443.0
275,1685095701157,459.0,438.0
276,1685095701157,433.0,386.0
277,1685095701157,505.0,471.0
278,1685095701157,399.0,398.0
279,1685095701157,413.0,403.0
280,1685095701157,482.0,446.0
281,1685095701157,406.0,420.0
282,1685095701157,384.0,412.0
283,1685095701157,377.0,431.0
284,1685095701157,450.0,457.0
285,1685095701157,387.0,464.0
286,1685095701157,466.0,433.0
287,1685095701157,418.0,460.0
288,1685095701157,476.0,430.0
289,1685095701157,435.0,455.0
290,1685095701157,473.0,432.0
291,1685095701157,458.0,429.0
292,1685095701157,488.0,459.0
293,1685095701157,390.0,381.0
294,1685095701157,494.0,444.0
295,1685095701157,463.0,429.0
296,1685095701157,377.0,410.0
297,1685095701157,410.0,397.0
298,1685095701157,401.0,418.0
299,1685095701157,425.0,453.0
300,1685095701157,360.0,425.0
301,1685095701157,471.0,455.0
302,1685095701157,409.0,475.0
303,1685095701157,465.0,428.0
304,1685095701157,428.0,472.0
305,1685095701157,492.0,425.0
306,1685095701157,453.0,443.0
307,1685095701157,465.0,432.0
308,1685095701157,427.0,383.0
309,1685095701157,525.0,476.0
310,1685095701157,404.0,403.0
311,1685095701157,402.0,398.0
312,1685095701157,464.0,425.0
313,1685095701157,406.0,426.0
314,1685095701157,374.0,413.0
315,1685095701157,360.0,398.0
316,1685095701157,462.0,466.0
317,1685095701157,381.0,463.0
318,1685095701157,473.0,448.0
319,1685095701157,426.0,474.0
320,1685095701157,487.0,433.0
321,1685095701157,454.0,462.0
322,1685095701157,477.0,443.0
323,1685095701161,459.0,414.0
324,1685095701162,493.0,465.0
325,1685095701162,384.0,375.0
326,1685095701162,479.0,436.0
327,1685095701162,475.0,450.0
328,1685095701162,377.0,417.0
329,1685095701162,393.0,404.0
330,1685095701162,397.0,423.0
331,1685095701162,432.0,448.0
332,1685095701162,365.0,450.0
333,1685095701162,480.0,454.0
334,1685095701162,419.0,485.0
335,1685095701162,475.0,422.0
336,1685095701162,432.0,466.0
337,1685095701162,483.0,434.0
338,1685095701162,463.0,442.0
339,1685095701162,473.0,430.0
340,1685095701162,407.0,392.0
341,1685095701162,524.0,474.0
342,1685095701162,408.0,412.0
343,1685095701162,375.0,398.0
344,1685095701162,443.0,413.0
345,1685095701162,406.0,436.0
346,1685095701162,394.0,423.0
347,1685095701162,373.0,435.0
348,1685095701162,468.0,462.0
349,1685095701162,399.0,477.0
350,1685095701162,466.0,428.0
351,1685095701162,428.0,486.0
352,1685095701162,478.0,420.0
353,1685095701162,445.0,456.0
354,1685095701162,460.0,419.0
355,1685095701162,454.0,419.0
356,1685095701162,505.0,466.0
357,1685095701162,385.0,401.0
358,1685095701162,473.0,423.0
359,1685095701162,494.0,450.0
360,1685095701162,386.0,416.0
361,1685095701162,387.0,399.0
362,1685095701162,392.0,413.0
363,1685095701162,443.0,459.0
364,1685095701162,369.0,453.0
365,1685095701162,469.0,444.0
366,1685095701162,415.0,484.0
367,1685095701162,472.0,428.0
368,1685095701162,432.0,482.0
369,1685095701162,482.0,421.0
370,1685095701162,467.0,435.0
371,1685095701162,469.0,450.0
372,1685095701162,405.0,383.0
373,1685095701162,517.0,465.0
374,1685095701162,436.0,429.0
375,1685095701162,378.0,392.0
376,1685095701162,429.0,401.0
377,1685095701162,408.0,430.0
378,1685095701162,397.0,424.0
379,1685095701162,349.0,425.0
380,1685095701162,464.0,473.0
381,1685095701162,401.0,478.0
382,1685095701162,466.0,428.0
383,1685095701162,431.0,476.0
384,1685095701162,498.0,425.0
385,1685095701162,453.0,453.0
386,1685095701162,465.0,424.0
387,1685095701162,456.0,404.0
388,1685095701162,509.0,465.0
389,1685095701162,396.0,389.0
390,1685095701162,438.0,405.0
391,1685095701162,481.0,437.0
392,1685095701162,401.0,427.0
393,1685095701162,383.0,402.0
394,1685095701162,380.0,415.0
395,1685095701162,456.0,456.0
396,1685095701162,373.0,458.0
397,1685095701162,479.0,452.0
398,1685095701162,421.0,480.0
399,1685095701162,490.0,427.0
400,1685095701162,438.0,476.0
401,1685095701162,483.0,425.0
402,1685095701162,469.0,425.0
403,1685095701162,478.0,469.0
404,1685095701162,405.0,380.0
405,1685095701162,498.0,448.0
406,1685095701162,438.0,424.0
407,1685095701162,373.0,407.0
408,1685095701162,414.0,403.0
409,1685095701162,405.0,429.0
410,1685095701162,417.0,428.0
411,1685095701162,357.0,432.0
412,1685095701162,475.0,464.0
413,1685095701162,415.0,481.0
414,1685095701162,478.0,421.0
415,1685095701162,426.0,474.0
416,1685095701162,478.0,420.0
417,1685095701162,453.0,456.0
418,1685095701162,465.0,430.0
419,1685095701162,432.0,392.0
420,1685095701162,518.0,468.0
421,1685095701162,396.0,412.0
422,1685095701162,423.0,420.0
423,1685095701162,477.0,428.0
424,1685095701162,400.0,422.0
425,1685095701162,389.0,414.0
426,1685095701162,373.0,420.0
427,1685095701162,464.0,480.0
428,1685095701162,380.0,464.0
429,1685095701162,474.0,453.0
430,1685095701162,430.0,478.0
431,1685095701162,479.0,423.0
432,1685095701162,443.0,464.0
433,1685095701162,478.0,427.0
434,1685095701162,452.0,416.0
435,1685095701162,491.0,470.0
436,1685095701162,396.0,396.0
437,1685095701162,493.0,440.0
438,1685095701162,473.0,451.0
439,1685095701162,377.0,403.0
440,1685095701162,406.0,397.0
441,1685095701162,405.0,424.0
442,1685095701162,417.0,432.0
443,1685095701162,354.0,418.0
444,1685095701162,468.0,447.0
445,1685095701162,413.0,483.0
446,1685095701162,473.0,425.0
447,1685095701162,435.0,471.0
448,1685095701162,492.0,419.0
449,1685095701162,473.0,443.0
450,1685095701162,479.0,439.0
451,1685095701162,421.0,374.0
452,1685095701162,526.0,471.0
453,1685095701162,404.0,407.0
454,1685095701162,398.0,404.0
455,1685095701162,454.0,413.0
456,1685095701162,396.0,441.0
457,1685095701162,371.0,390.0
458,1685095701162,347.0,417.0
459,1685095701162,471.0,461.0
460,1685095701162,385.0,473.0
461,1685095701162,470.0,432.0
462,1685095701162,427.0,481.0
463,1685095701162,494.0,419.0
464,1685095701162,455.0,454.0
465,1685095701162,476.0,427.0
466,1685095701162,455.0,407.0
467,1685095701162,502.0,475.0
468,1685095701162,375.0,376.0
469,1685095701162,470.0,428.0
470,1685095701162,479.0,439.0
471,1685095701162,378.0,410.0
472,1685095701162,411.0,400.0
473,1685095701162,399.0,424.0
474,1685095701162,436.0,451.0
475,1685095701162,353.0,445.0
476,1685095701162,488.0,463.0
477,1685095701162,422.0,495.0
478,1685095701162,477.0,419.0
479,1685095701162,435.0,467.0
480,1685095701162,483.0,421.0
481,1685095701162,464.0,436.0
482,1685095701162,461.0,444.0
483,1685095701162,410.0,368.0
484,1685095701162,516.0,471.0
485,1685095701162,423.0,427.0
486,1685095701162,381.0,393.0
487,1685095701162,455.0,420.0
488,1685095701162,409.0,431.0
489,1685095701162,403.0,438.0
490,1685095701162,360.0,431.0
491,1685095701162,480.0,461.0
492,1685095701162,389.0,469.0
493,1685095701162,463.0,423.0
494,1685095701162,418.0,478.0
495,1685095701162,486.0,426.0
496,1685095701162,447.0,457.0
497,1685095701162,464.0,438.0
498,1685095701162,461.0,400.0
499,1685095701162,514.0,479.0
500,1685095701162,396.0,394.0
501,1685095701162,469.0,433.0
502,1685095701162,491.0,440.0
503,1685095701162,391.0,426.0
504,1685095701162,384.0,408.0
505,1685095701162,369.0,412.0
506,1685095701162,438.0,461.0
507,1685095701162,350.0,446.0
508,1685095701162,486.0,450.0
509,1685095701162,418.0,477.0
510,1685095701162,480.0,431.0
511,1685095701162,445.0,480.0
512,1685095701162,492.0,423.0
513,1685095701162,473.0,425.0
514,1685095701162,486.0,461.0
515,1685095701162,400.0,383.0
516,1685095701162,514.0,460.0
517,1685095701162,435.0,419.0
518,1685095701162,382.0,394.0
519,1685095701162,442.0,397.0
520,1685095701162,435.0,428.0
521,1685095701162,395.0,432.0
522,1685095701162,342.0,409.0
523,1685095701162,452.0,436.0
524,1685095701162,412.0,456.0
525,1685095701162,426.0,447.0
526,1685095701162,462.0,462.0
527,1685095701162,500.0,436.0
528,1685095701162,447.0,410.0
529,1685095701162,454.0,429.0
530,1685095701162,416.0,414.0
531,1685095701162,489.0,458.0
532,1685095701162,383.0,393.0
533,1685095701162,465.0,437.0
534,1685095701162,500.0,463.0
535,1685095701162,430.0,440.0
536,1685095701162,385.0,415.0
537,1685095701162,412.0,410.0
538,1685095701162,471.0,450.0
539,1685095701162,359.0,421.0
540,1685095701162,481.0,451.0
541,1685095701162,414.0,442.0
542,1685095701162,473.0,415.0
543,1685095701162,440.0,452.0
544,1685095701162,471.0,426.0
545,1685095701162,440.0,409.0
546,1685095701162,492.0,448.0
547,1685095701162,396.0,383.0
548,1685095701162,515.0,444.0
549,1685095701162,496.0,442.0
550,1685095701162,308.0,379.0
551,1685095701162,399.0,460.0
552,1685095701162,403.0,416.0
553,1685095701162,386.0,444.0
554,1685095701162,341.0,418.0
555,1685095701162,460.0,471.0
556,1685095701162,398.0,474.0
557,1685095701162,462.0,435.0
558,1685095701162,427.0,485.0
559,1685095701162,493.0,425.0
560,1685095701162,459.0,439.0
561,1685095701162,478.0,453.0
562,1685095701162,432.0,424.0
563,1685095701162,525.0,468.0
564,1685095701162,408.0,401.0
565,1685095701162,407.0,397.0
566,1685095701162,471.0,441.0
567,1685095701162,391.0,421.0
568,1685095701162,372.0,405.0
569,1685095701162,355.0,413.0
570,1685095701162,457.0,479.0
571,1685095701162,375.0,449.0
572,1685095701162,472.0,460.0
573,1685095701162,422.0,473.0
574,1685095701162,500.0,422.0
575,1685095701162,474.0,478.0
576,1685095701162,481.0,423.0
577,1685095701162,466.0,434.0
578,1685095701162,497.0,464.0
579,1685095701162,381.0,379.0
580,1685095701162,483.0,436.0
581,1685095701162,461.0,431.0
582,1685095701162,359.0,392.0
583,1685095701162,396.0,405.0
584,1685095701162,398.0,414.0
585,1685095701162,423.0,446.0
586,1685095701162,347.0,444.0
587,1685095701162,478.0,460.0
588,1685095701162,423.0,484.0
589,1685095701162,482.0,436.0
590,1685095701162,440.0,469.0
591,1685095701162,489.0,427.0
592,1685095701162,468.0,441.0
593,1685095701162,470.0,453.0
594,1685095701162,411.0,376.0
595,1685095701162,512.0,470.0
596,1685095701162,406.0,415.0
597,1685095701162,391.0,394.0
598,1685095701162,467.0,421.0
599,1685095701162,411.0,439.0
600,1685095701162,387.0,411.0
601,1685095701162,360.0,425.0
602,1685095701162,477.0,469.0
603,1685095701162,394.0,463.0
604,1685095701162,466.0,431.0
605,1685095701162,418.0,474.0
606,1685095701162,477.0,427.0
607,1685095701162,447.0,461.0
608,1685095701162,469.0,414.0
609,1685095701162,461.0,413.0
610,1685095701162,514.0,476.0
611,1685095701162,383.0,385.0
612,1685095701162,475.0,437.0
613,1685095701162,483.0,436.0
614,1685095701162,375.0,420.0
615,1685095701162,396.0,395.0
616,1685095701162,392.0,424.0
617,1685095701162,436.0,454.0
618,1685095701162,346.0,437.0
619,1685095701162,476.0,440.0
620,1685095701162,419.0,481.0
621,1685095701162,479.0,430.0
622,1685095701162,437.0,469.0
623,1685095701162,490.0,433.0
624,1685095701162,473.0,439.0
625,1685095701162,483.0,449.0
626,1685095701162,403.0,391.0
627,1685095701162,514.0,457.0
628,1685095701162,429.0,424.0
629,1685095701162,378.0,389.0
630,1685095701162,438.0,411.0
631,1685095701162,396.0,428.0
632,1685095701162,387.0,416.0
633,1685095701162,346.0,415.0
634,1685095701162,479.0,483.0
635,1685095701162,398.0,482.0
636,1685095701162,474.0,430.0
637,1685095701162,428.0,473.0
638,1685095701162,496.0,427.0
639,1685095701162,459.0,459.0
640,1685095701162,469.0,439.0
641,1685095701162,444.0,392.0
642,1685095701162,512.0,480.0
643,1685095701162,393.0,390.0
644,1685095701162,456.0,420.0
645,1685095701162,498.0,459.0
646,1685095701162,384.0,413.0
647,1685095701162,387.0,400.0
648,1685095701162,370.0,448.0
649,1685095701162,446.0,449.0
650,1685095701162,364.0,448.0
651,1685095701162,484.0,436.0
652,1685095701162,421.0,481.0
653,1685095701162,490.0,436.0
654,1685095701162,447.0,473.0
655,1685095701162,490.0,429.0
656,1685095701162,474.0,437.0
657,1685095701162,473.0,454.0
658,1685095701162,390.0,386.0
659,1685095701162,509.0,451.0
660,1685095701162,439.0,431.0
661,1685095701162,370.0,398.0
662,1685095701162,417.0,410.0
663,1685095701162,400.0,420.0
664,1685095701162,412.0,436.0
665,1685095701162,361.0,438.0
666,1685095701162,484.0,460.0
667,1685095701162,403.0,488.0
668,1685095701162,476.0,431.0
669,1685095701162,425.0,471.0
670,1685095701162,493.0,423.0
671,1685095701162,453.0,453.0
672,1685095701162,465.0,431.0
673,1685095701162,435.0,391.0
674,1685095701162,513.0,476.0
675,1685095701162,397.0,400.0
676,1685095701162,422.0,418.0
677,1685095701162,488.0,428.0
678,1685095701162,394.0,415.0
679,1685095701162,381.0,406.0
680,1685095701162,356.0,410.0
681,1685095701162,457.0,460.0
682,1685095701162,376.0,470.0
683,1685095701162,480.0,442.0
684,1685095701162,422.0,492.0
685,1685095701162,492.0,436.0
686,1685095701162,446.0,460.0
687,1685095701162,484.0,420.0
688,1685095701162,463.0,432.0
689,1685095701162,484.0,452.0
690,1685095701162,390.0,384.0
691,1685095701162,507.0,443.0
692,1685095701162,467.0,453.0
693,1685095701162,367.0,402.0
694,1685095701162,397.0,399.0
695,1685095701162,396.0,430.0
696,1685095701162,422.0,453.0
697,1685095701162,347.0,436.0
698,1685095701162,463.0,446.0
699,1685095701162,405.0,479.0
700,1685095701162,481.0,430.0
701,1685095701162,443.0,478.0
702,1685095701162,497.0,424.0
703,1685095701162,470.0,453.0
704,1685095701162,471.0,428.0
705,1685095701162,421.0,384.0
706,1685095701162,518.0,472.0
707,1685095701162,398.0,409.0
708,1685095701162,393.0,385.0
709,1685095701162,468.0,426.0
710,1685095701162,391.0,428.0
711,1685095701162,376.0,409.0
712,1685095701162,349.0,428.0
713,1685095701162,465.0,452.0
714,1685095701162,394.0,473.0
715,1685095701162,483.0,438.0
716,1685095701162,423.0,476.0
717,1685095701162,494.0,432.0
718,1685095701162,452.0,459.0
719,1685095701162,468.0,409.0
720,1685095701162,463.0,421.0
721,1685095701162,502.0,463.0
722,1685095701162,381.0,391.0
723,1685095701162,480.0,434.0
724,1685095701162,476.0,444.0
725,1685095701162,367.0,397.0
726,1685095701162,399.0,402.0
727,1685095701162,391.0,425.0
728,1685095701162,436.0,464.0
729,1685095701162,355.0,437.0
730,1685095701162,475.0,466.0
731,1685095701162,412.0,480.0
732,1685095701162,482.0,418.0
733,1685095701162,443.0,473.0
734,1685095701162,486.0,434.0
735,1685095701162,460.0,448.0
736,1685095701162,472.0,436.0
737,1685095701162,394.0,382.0
738,1685095701162,516.0,460.0
739,1685095701162,415.0,413.0
740,1685095701162,377.0,386.0
741,1685095701162,458.0,419.0
742,1685095701162,402.0,427.0
743,1685095701162,385.0,421.0
744,1685095701162,348.0,412.0
745,1685095701162,467.0,459.0
746,1685095701162,405.0,478.0
747,1685095701162,468.0,429.0
748,1685095701162,429.0,483.0
749,1685095701162,488.0,425.0
750,1685095701162,452.0,452.0
751,1685095701162,469.0,433.0
752,1685095701162,452.0,393.0
753,1685095701162,513.0,478.0
754,1685095701162,393.0,397.0
755,1685095701162,468.0,421.0
756,1685095701162,490.0,459.0
757,1685095701162,368.0,402.0
758,1685095701162,390.0,403.0
759,1685095701162,372.0,417.0
760,1685095701162,441.0,449.0
761,1685095701162,353.0,447.0
762,1685095701162,473.0,450.0
763,1685095701162,420.0,470.0
764,1685095701162,481.0,434.0
765,1685095701162,448.0,470.0
766,1685095701162,488.0,429.0
767,1685095701162,478.0,440.0
768,1685095701162,483.0,458.0
769,1685095701162,399.0,379.0
770,1685095701162,529.0,478.0
771,1685095701162,429.0,409.0
772,1685095701162,370.0,401.0
773,1685095701162,421.0,407.0
774,1685095701162,398.0,438.0
775,1685095701162,396.0,422.0
776,1685095701162,343.0,425.0
777,1685095701162,481.0,465.0
778,1685095701162,407.0,484.0
779,1685095701162,478.0,434.0
780,1685095701162,436.0,469.0
781,1685095701162,500.0,419.0
782,1685095701162,455.0,458.0
783,1685095701162,465.0,435.0
784,1685095701162,448.0,395.0
785,1685095701162,506.0,462.0
786,1685095701162,392.0,398.0
787,1685095701162,426.0,417.0
788,1685095701162,481.0,435.0
789,1685095701162,388.0,432.0
790,1685095701162,381.0,403.0
791,1685095701162,381.0,422.0
792,1685095701162,468.0,453.0
793,1685095701162,368.0,466.0
794,1685095701162,481.0,436.0
795,1685095701162,423.0,483.0
796,1685095701162,491.0,433.0
797,1685095701162,440.0,455.0
798,1685095701162,471.0,420.0
799,1685095701162,467.0,422.0
800,1685095701162,479.0,456.0
801,1685095701162,385.0,376.0
802,1685095701162,497.0,445.0
803,1685095701162,450.0,441.0
804,1685095701162,376.0,414.0
805,1685095701162,415.0,398.0
806,1685095701162,414.0,438.0
807,1685095701162,409.0,448.0
808,1685095701162,355.0,422.0
809,1685095701162,483.0,460.0
810,1685095701162,402.0,471.0
811,1685095701162,471.0,435.0
812,1685095701162,424.0,479.0
813,1685095701162,483.0,423.0
814,1685095701162,452.0,448.0
815,1685095701162,462.0,433.0
816,1685095701162,439.0,401.0
817,1685095701162,527.0,482.0
818,1685095701162,412.0,415.0
819,1685095701162,414.0,399.0
820,1685095701162,467.0,427.0
821,1685095701162,396.0,436.0
822,1685095701162,375.0,397.0
823,1685095701162,351.0,413.0
824,1685095701162,461.0,464.0
825,1685095701162,372.0,460.0
826,1685095701162,468.0,446.0
827,1685095701162,427.0,488.0
828,1685095701162,496.0,419.0
829,1685095701162,461.0,476.0
830,1685095701162,485.0,424.0
831,1685095701162,469.0,425.0
832,1685095701162,508.0,468.0
833,1685095701162,390.0,374.0
834,1685095701162,483.0,438.0
835,1685095701162,460.0,436.0
836,1685095701162,359.0,402.0
837,1685095701162,395.0,411.0
838,1685095701162,391.0,420.0
839,1685095701162,418.0,450.0
840,1685095701162,357.0,447.0
841,1685095701162,477.0,458.0
842,1685095701162,419.0,485.0
843,1685095701162,494.0,452.0
844,1685095701162,441.0,477.0
845,1685095701162,498.0,430.0
846,1685095701162,476.0,445.0
847,1685095701162,472.0,441.0
848,1685095701162,407.0,383.0
849,1685095701162,509.0,466.0
850,1685095701162,398.0,408.0
851,1685095701162,375.0,387.0
852,1685095701162,454.0,416.0
853,1685095701162,401.0,434.0
854,1685095701162,391.0,422.0
855,1685095701162,358.0,414.0
856,1685095701162,488.0,472.0
857,1685095701162,403.0,482.0
858,1685095701162,480.0,429.0
859,1685095701162,430.0,479.0
860,1685095701162,478.0,426.0
861,1685095701162,449.0,455.0
862,1685095701162,470.0,429.0
863,1685095701162,444.0,407.0
864,1685095701162,503.0,467.0
865,1685095701162,379.0,382.0
866,1685095701162,474.0,430.0
867,1685095701162,498.0,451.0
868,1685095701162,374.0,409.0
869,1685095701162,398.0,406.0
870,1685095701162,393.0,412.0
871,1685095701162,450.0,466.0
872,1685095701162,356.0,453.0
873,1685095701162,477.0,435.0
874,1685095701162,414.0,475.0
875,1685095701162,472.0,420.0
876,1685095701162,427.0,471.0
877,1685095701162,507.0,435.0
878,1685095701162,477.0,437.0
879,1685095701162,477.0,456.0
880,1685095701162,410.0,384.0
881,1685095701162,526.0,467.0
882,1685095701162,439.0,421.0
883,1685095701162,367.0,391.0
884,1685095701162,434.0,408.0
885,1685095701162,395.0,426.0
886,1685095701162,389.0,415.0
887,1685095701162,340.0,417.0
888,1685095701162,469.0,461.0
889,1685095701162,397.0,481.0
890,1685095701162,477.0,437.0
891,1685095701162,427.0,473.0
892,1685095701162,498.0,441.0
893,1685095701162,469.0,461.0
894,1685095701162,478.0,435.0
895,1685095701162,454.0,408.0
896,1685095701162,518.0,468.0
897,1685095701162,380.0,394.0
898,1685095701162,442.0,426.0
899,1685095701162,487.0,441.0
900,1685095701162,371.0,412.0
901,1685095701162,378.0,399.0
902,1685095701162,367.0,415.0
903,1685095701162,455.0,450.0
904,1685095701162,365.0,474.0
905,1685095701162,483.0,452.0
906,1685095701162,436.0,490.0
907,1685095701162,493.0,428.0
908,1685095701162,452.0,466.0
909,1685095701162,484.0,416.0
910,1685095701162,459.0,427.0
911,1685095701162,476.0,446.0
912,1685095701162,379.0,376.0
913,1685095701162,497.0,452.0
914,1685095701162,445.0,432.0
915,1685095701162,358.0,386.0
916,1685095701162,421.0,406.0
917,1685095701162,409.0,437.0
918,1685095701162,407.0,432.0
919,1685095701162,359.0,434.0
920,1685095701162,482.0,465.0
921,1685095701162,415.0,475.0
922,1685095701162,471.0,426.0
923,1685095701162,422.0,482.0
924,1685095701162,487.0,416.0
925,1685095701162,455.0,448.0
926,1685095701162,469.0,429.0
927,1685095701162,431.0,396.0
928,1685095701162,520.0,484.0
929,1685095701162,399.0,395.0
930,1685095701162,412.0,410.0
931,1685095701162,486.0,433.0
932,1685095701162,387.0,406.0
933,1685095701162,377.0,402.0
934,1685095701162,363.0,414.0
935,1685095701162,461.0,461.0
936,1685095701162,373.0,453.0
937,1685095701162,474.0,442.0
938,1685095701162,421.0,484.0
939,1685095701162,487.0,427.0
940,1685095701162,450.0,466.0
941,1685095701162,480.0,427.0
942,1685095701162,458.0,433.0
943,1685095701162,496.0,463.0
944,1685095701162,387.0,382.0
945,1685095701162,490.0,439.0
946,1685095701162,470.0,442.0
947,1685095701162,361.0,399.0
948,1685095701162,395.0,396.0
949,1685095701162,383.0,423.0
950,1685095701162,417.0,444.0
951,1685095701162,344.0,437.0
952,1685095701162,472.0,454.0
953,1685095701162,419.0,481.0
954,1685095701162,486.0,436.0
955,1685095701162,446.0,480.0
956,1685095701162,498.0,432.0
957,1685095701162,467.0,442.0
958,1685095701162,471.0,444.0
959,1685095701162,418.0,382.0
960,1685095701162,518.0,460.0
961,1685095701162,404.0,410.0
962,1685095701162,378.0,392.0
963,1685095701162,463.0,427.0
964,1685095701162,391.0,419.0
965,1685095701162,382.0,405.0
966,1685095701162,353.0,423.0
967,1685095701162,467.0,467.0
968,1685095701162,391.0,476.0
969,1685095701162,486.0,443.0
970,1685095701162,427.0,465.0
971,1685095701162,502.0,439.0
972,1685095701162,451.0,455.0
973,1685095701162,467.0,412.0
974,1685095701162,469.0,427.0
975,1685095701162,503.0,465.0
976,1685095701162,374.0,388.0
977,1685095701162,464.0,425.0
978,1685095701162,474.0,439.0
979,1685095701162,369.0,416.0
980,1685095701162,395.0,403.0
981,1685095701162,378.0,437.0
982,1685095701162,447.0,460.0
983,1685095701162,364.0,445.0
984,1685095701162,487.0,444.0
985,1685095701162,424.0,490.0
986,1685095701162,480.0,424.0
987,1685095701162,433.0,476.0
988,1685095701162,485.0,435.0
989,1685095701162,465.0,442.0
990,1685095701162,477.0,455.0
991,1685095701162,396.0,383.0
992,1685095701162,513.0,451.0
993,1685095701162,428.0,425.0
994,1685095701162,364.0,388.0
995,1685095701162,445.0,419.0
996,1685095701162,398.0,436.0
997,1685095701162,405.0,431.0
998,1685095701162,357.0,430.0
999,1685095701162,482.0,468.0
1000,1685095701162,401.0,468.0
1001,1685095701162,474.0,434.0
1002,1685095701162,426.0,468.0
1003,1685095701162,473.0,405.0
1004,1685095701162,448.0,448.0
1005,1685095701162,470.0,423.0
1006,1685095701162,451.0,413.0
1007,1685095701162,506.0,470.0
1008,1685095701162,397.0,394.0
1009,1685095701162,447.0,420.0
1010,1685095701162,491.0,445.0
1011,1685095701162,383.0,432.0
1012,1685095701162,380.0,397.0
1013,1685095701162,375.0,417.0
1014,1685095701162,449.0,465.0
1015,1685095701162,354.0,443.0
1016,1685095701162,487.0,450.0
1017,1685095701162,427.0,488.0
1018,1685095701162,482.0,414.0
1019,1685095701162,445.0,475.0
1020,1685095701162,494.0,417.0
1021,1685095701162,471.0,438.0
1022,1685095701162,480.0,445.0
1023,1685095701162,393.0,381.0
1024,1685095701162,511.0,453.0
1025,1685095701162,435.0,423.0
1026,1685095701162,354.0,398.0
1027,1685095701162,418.0,399.0
1028,1685095701162,399.0,425.0
1029,1685095701162,406.0,437.0
1030,1685095701162,348.0,436.0
1031,1685095701162,481.0,451.0
1032,1685095701162,399.0,487.0
1033,1685095701162,477.0,422.0
1034,1685095701162,436.0,484.0
1035,1685095701162,492.0,430.0
1036,1685095701162,462.0,445.0
1037,1685095701162,470.0,444.0
1038,1685095701162,435.0,400.0
1039,1685095701162,511.0,465.0
1040,1685095701162,388.0,396.0
1041,1685095701162,408.0,396.0
1042,1685095701162,485.0,444.0
1043,1685095701162,387.0,437.0
1044,1685095701162,380.0,411.0
1045,1685095701162,363.0,415.0
1046,1685095701162,469.0,462.0
1047,1685095701162,381.0,466.0
1048,1685095701162,486.0,444.0
1049,1685095701162,426.0,490.0
1050,1685095701162,484.0,420.0
1051,1685095701162,445.0,463.0
1052,1685095701162,478.0,435.0
1053,1685095701162,460.0,418.0
1054,1685095701162,490.0,457.0
1055,1685095701162,386.0,386.0
1056,1685095701162,490.0,438.0
1057,1685095701162,467.0,448.0
1058,1685095701162,366.0,402.0
1059,1685095701162,401.0,396.0
1060,1685095701162,399.0,423.0
1061,1685095701162,429.0,460.0
1062,1685095701162,349.0,431.0
1063,1685095701162,472.0,456.0
1064,1685095701162,418.0,490.0
1065,1685095701162,475.0,422.0
1066,1685095701162,437.0,475.0
1067,1685095701162,488.0,406.0
1068,1685095701162,461.0,438.0
1069,1685095701162,472.0,437.0
1070,1685095701162,420.0,391.0
1071,1685095701162,525.0,467.0
1072,1685095701162,410.0,417.0
1073,1685095701162,387.0,393.0
1074,1685095701162,461.0,414.0
1075,1685095701162,388.0,434.0
1076,1685095701162,380.0,409.0
1077,1685095701162,351.0,421.0
1078,1685095701162,469.0,454.0
1079,1685095701162,390.0,477.0
1080,1685095701162,479.0,435.0
1081,1685095701162,433.0,488.0
1082,1685095701162,500.0,440.0
1083,1685095701162,455.0,466.0
1084,1685095701162,476.0,427.0
1085,1685095701162,457.0,415.0
1086,1685095701162,515.0,471.0
1087,1685095701162,377.0,386.0
1088,1685095701162,468.0,421.0
1089,1685095701162,473.0,429.0
1090,1685095701162,358.0,417.0
1091,1685095701162,398.0,401.0
1092,1685095701162,374.0,419.0
1093,1685095701162,442.0,463.0
1094,1685095701162,352.0,437.0
1095,1685095701162,480.0,456.0
1096,1685095701162,428.0,470.0
1097,1685095701162,487.0,433.0
1098,1685095701162,448.0,466.0
1099,1685095701162,490.0,433.0
1100,1685095701162,471.0,434.0
1101,1685095701162,471.0,457.0
1102,1685095701162,371.0,356.0
1103,1685095701177,511.0,453.0
1104,1685095701177,404.0,423.0
1105,1685095701177,365.0,394.0
1106,1685095701177,437.0,408.0
1107,1685095701177,396.0,431.0
1108,1685095701177,397.0,422.0
1109,1685095701177,352.0,416.0
1110,1685095701177,488.0,458.0
1111,1685095701177,402.0,476.0
1112,1685095701177,471.0,422.0
1113,1685095701177,424.0,482.0
1114,1685095701177,482.0,423.0
1115,1685095701177,453.0,457.0
1116,1685095701177,467.0,419.0
1117,1685095701177,439.0,406.0
1118,1685095701177,511.0,461.0
1119,1685095701177,384.0,396.0
1120,1685095701177,437.0,425.0
1121,1685095701177,495.0,442.0
1122,1685095701177,387.0,423.0
1123,1685095701177,388.0,403.0
1124,1685095701177,377.0,426.0
1125,1685095701177,456.0,469.0
1126,1685095701177,371.0,449.0
1127,1685095701177,491.0,447.0
1128,1685095701177,416.0,485.0
1129,1685095701178,477.0,429.0
1130,1685095701178,444.0,459.0
1131,1685095701178,481.0,431.0
1132,1685095701178,470.0,418.0
1133,1685095701200,476.0,445.0
1134,1685095701200,402.0,374.0
1135,1685095701200,511.0,460.0
1136,1685095701234,452.0,425.0
1137,1685095701234,366.0,401.0
1138,1685095701234,416.0,389.0
1139,1685095701234,387.0,421.0
1140,1685095701266,403.0,439.0
1141,1685095701266,336.0,417.0
1142,1685095701266,479.0,463.0
1143,1685095701266,400.0,486.0
1144,1685095701302,473.0,416.0
1145,1685095701302,432.0,479.0
1146,1685095701302,500.0,428.0
1147,1685095701333,471.0,454.0
1148,1685095701333,480.0,435.0
1149,1685095701333,440.0,384.0
1150,1685095701333,517.0,478.0
1151,1685095701368,395.0,403.0
1152,1685095701368,400.0,412.0
1153,1685095701368,472.0,433.0
1154,1685095701401,382.0,420.0
1155,1685095701401,369.0,403.0
1156,1685095701401,347.0,415.0
1157,1685095701401,462.0,457.0
1158,1685095701431,384.0,468.0
1159,1685095701431,496.0,446.0
1160,1685095701431,431.0,482.0
1161,1685095701462,503.0,429.0
1162,1685095701462,454.0,461.0
1163,1685095701462,484.0,427.0
1164,1685095701462,460.0,432.0
1165,1685095701493,484.0,452.0
1166,1685095701493,362.0,376.0
1167,1685095701493,478.0,441.0
1168,1685095701524,459.0,439.0
1169,1685095701524,362.0,406.0
1170,1685095701524,393.0,395.0
1171,1685095701524,399.0,433.0
1172,1685095701558,441.0,449.0
1173,1685095701558,356.0,446.0
1174,1685095701558,493.0,461.0
1175,1685095701558,425.0,498.0
1176,1685095701601,479.0,413.0
1177,1685095701601,430.0,464.0
1178,1685095701601,480.0,416.0
1179,1685095701633,455.0,441.0
1180,1685095701633,468.0,446.0
1181,1685095701633,409.0,382.0
1182,1685095701633,528.0,473.0
1183,1685095701670,414.0,421.0
1184,1685095701670,384.0,402.0
1185,1685095701670,466.0,421.0
1186,1685095701701,398.0,435.0
1187,1685095701701,393.0,424.0
1188,1685095701701,352.0,409.0
1189,1685095701701,474.0,458.0
1190,1685095701732,383.0,465.0
1191,1685095701732,468.0,430.0
1192,1685095701732,416.0,476.0
1193,1685095701764,492.0,425.0
1194,1685095701764,455.0,476.0
1195,1685095701764,472.0,423.0
1196,1685095701764,466.0,411.0
1197,1685095701795,516.0,479.0
1198,1685095701795,385.0,382.0
1199,1685095701795,473.0,443.0
1200,1685095701828,486.0,432.0
1201,1685095701828,366.0,410.0
1202,1685095701828,379.0,392.0
1203,1685095701828,372.0,423.0
1204,1685095701858,442.0,459.0
1205,1685095701858,339.0,439.0
1206,1685095701858,476.0,464.0
1207,1685095701858,429.0,485.0
1208,1685095701904,495.0,441.0
1209,1685095701904,451.0,484.0
1210,1685095701904,499.0,431.0
1211,1685095701926,479.0,444.0
1212,1685095701926,481.0,456.0
1213,1685095701926,395.0,372.0
1214,1685095701926,508.0,461.0
1215,1685095701969,411.0,405.0
1216,1685095701969,359.0,390.0
1217,1685095701969,434.0,423.0
1218,1685095702000,389.0,422.0
1219,1685095702000,395.0,429.0
1220,1685095702000,344.0,424.0
1221,1685095702000,487.0,470.0
1222,1685095702032,409.0,482.0
1223,1685095702032,488.0,437.0
1224,1685095702032,439.0,484.0
1225,1685095702065,492.0,430.0
1226,1685095702065,456.0,459.0
1227,1685095702065,470.0,425.0
1228,1685095702065,434.0,396.0
1229,1685095702095,501.0,467.0
1230,1685095702095,378.0,394.0
1231,1685095702095,430.0,412.0
1232,1685095702127,486.0,450.0
1233,1685095702127,382.0,418.0
1234,1685095702127,392.0,409.0
1235,1685095702127,369.0,412.0
1236,1685095702159,470.0,476.0
1237,1685095702159,363.0,457.0
1238,1685095702159,490.0,446.0
1239,1685095702159,423.0,474.0
1240,1685095702203,479.0,415.0
1241,1685095702203,441.0,463.0
1242,1685095702203,476.0,423.0
1243,1685095702235,467.0,433.0
1244,1685095702235,483.0,456.0
1245,1685095702235,387.0,375.0
1246,1685095702235,504.0,457.0
1247,1685095702269,457.0,451.0
1248,1685095702269,370.0,404.0
1249,1685095702269,411.0,393.0
1250,1685095702301,402.0,435.0
1251,1685095702301,419.0,451.0
1252,1685095702301,342.0,424.0
1253,1685095702301,482.0,456.0
1254,1685095702332,415.0,483.0
1255,1685095702332,478.0,430.0
1256,1685095702332,432.0,473.0
1257,1685095702364,488.0,422.0
1258,1685095702364,462.0,452.0
1259,1685095702364,470.0,441.0
1260,1685095702364,424.0,381.0
1261,1685095702395,528.0,478.0
1262,1685095702395,412.0,399.0
1263,1685095702395,403.0,398.0
1264,1685095702428,467.0,429.0
1265,1685095702428,385.0,420.0
1266,1685095702428,370.0,404.0
1267,1685095702428,357.0,421.0
1268,1685095702458,467.0,461.0
1269,1685095702458,374.0,461.0
1270,1685095702458,481.0,437.0
1271,1685095702458,430.0,471.0
1272,1685095702504,497.0,431.0
1273,1685095702504,455.0,464.0
1274,1685095702504,479.0,431.0
1275,1685095702535,454.0,401.0
1276,1685095702535,495.0,459.0
1277,1685095702535,375.0,375.0
1278,1685095702535,472.0,440.0
1279,1685095702570,467.0,436.0
1280,1685095702570,364.0,405.0
1281,1685095702570,398.0,401.0
1282,1685095702602,383.0,423.0
1283,1685095702602,429.0,455.0
1284,1685095702602,348.0,446.0
1285,1685095702602,493.0,462.0
1286,1685095702632,430.0,478.0
1287,1685095702632,483.0,423.0
1288,1685095702632,447.0,478.0
1289,1685095702664,490.0,425.0
1290,1685095702664,465.0,450.0
1291,1685095702664,470.0,450.0
1292,1685095702664,404.0,387.0
1293,1685095702697,509.0,460.0
1294,1685095702697,413.0,409.0
1295,1685095702697,372.0,392.0
1296,1685095702727,452.0,415.0
1297,1685095702727,396.0,427.0
1298,1685095702727,397.0,429.0
1299,1685095702727,360.0,419.0
1300,1685095702759,484.0,456.0
1301,1685095702759,400.0,475.0
1302,1685095702759,472.0,427.0
1303,1685095702759,424.0,480.0
1304,1685095702804,485.0,421.0
1305,1685095702804,445.0,448.0
1306,1685095702804,469.0,429.0
1307,1685095702836,448.0,398.0
1308,1685095702836,513.0,481.0
1309,1685095702836,380.0,386.0
1310,1685095702836,462.0,432.0
1311,1685095702870,493.0,442.0
1312,1685095702870,377.0,411.0
1313,1685095702870,390.0,407.0
1314,1685095702902,379.0,421.0
1315,1685095702902,443.0,461.0
1316,1685095702902,363.0,446.0
1317,1685095702902,478.0,453.0
1318,1685095702933,416.0,477.0
1319,1685095702933,485.0,437.0
1320,1685095702933,441.0,453.0
1321,1685095702965,493.0,429.0
1322,1685095702965,474.0,436.0
1323,1685095702965,479.0,470.0
1324,1685095702965,391.0,362.0
1325,1685095702996,515.0,465.0
1326,1685095702996,435.0,423.0
1327,1685095702996,362.0,391.0
1328,1685095703027,428.0,403.0
1329,1685095703027,393.0,429.0
1330,1685095703027,402.0,426.0
1331,1685095703027,336.0,420.0
1332,1685095703060,471.0,448.0
1333,1685095703060,403.0,485.0
1334,1685095703060,482.0,432.0
1335,1685095703060,444.0,489.0
1336,1685095703104,505.0,432.0
1337,1685095703104,461.0,450.0
1338,1685095703104,471.0,433.0
1339,1685095703137,441.0,403.0
1340,1685095703137,514.0,472.0
1341,1685095703137,391.0,402.0
1342,1685095703137,420.0,415.0
1343,1685095703171,477.0,434.0
1344,1685095703171,379.0,423.0
1345,1685095703171,372.0,394.0
1346,1685095703203,355.0,421.0
1347,1685095703203,466.0,466.0
1348,1685095703203,385.0,467.0
1349,1685095703203,492.0,452.0
1350,1685095703234,429.0,481.0
1351,1685095703234,493.0,423.0
1352,1685095703234,442.0,462.0
1353,1685095703266,481.0,427.0
1354,1685095703266,466.0,414.0
1355,1685095703266,484.0,456.0
1356,1685095703266,379.0,376.0
1357,1685095703297,480.0,445.0
1358,1685095703297,454.0,443.0
1359,1685095703297,358.0,395.0
1360,1685095703329,407.0,406.0
1361,1685095703329,400.0,427.0
1362,1685095703329,430.0,439.0
1363,1685095703329,355.0,437.0
1364,1685095703361,479.0,460.0
1365,1685095703361,416.0,472.0
1366,1685095703361,472.0,415.0
1367,1685095703361,435.0,476.0
1368,1685095703406,489.0,417.0
1369,1685095703406,460.0,444.0
1370,1685095703406,471.0,443.0
1371,1685095703437,413.0,382.0
1372,1685095703437,524.0,468.0
1373,1685095703437,403.0,408.0
1374,1685095703437,392.0,401.0
1375,1685095703472,472.0,418.0
1376,1685095703472,392.0,418.0
1377,1685095703472,392.0,421.0
1378,1685095703503,355.0,414.0
1379,1685095703503,474.0,460.0
1380,1685095703503,394.0,467.0
1381,1685095703503,476.0,433.0
1382,1685095703535,425.0,476.0
1383,1685095703535,492.0,419.0
1384,1685095703535,455.0,453.0
1385,1685095703568,471.0,421.0
1386,1685095703568,455.0,409.0
1387,1685095703568,505.0,469.0
1388,1685095703568,387.0,385.0
1389,1685095703598,471.0,439.0
1390,1685095703598,482.0,433.0
1391,1685095703598,365.0,409.0
1392,1685095703630,398.0,421.0
1393,1685095703630,383.0,413.0
1394,1685095703630,438.0,445.0
1395,1685095703630,345.0,445.0
1396,1685095703664,477.0,444.0
1397,1685095703664,425.0,486.0
1398,1685095703664,484.0,430.0
1399,1685095703664,444.0,469.0
1400,1685095703706,495.0,423.0
1401,1685095703706,473.0,427.0
1402,1685095703706,474.0,452.0
1403,1685095703737,394.0,383.0
1404,1685095703737,522.0,458.0
1405,1685095703737,421.0,416.0
1406,1685095703737,366.0,403.0
1407,1685095703772,439.0,417.0
1408,1685095703772,394.0,416.0
1409,1685095703772,395.0,432.0
1410,1685095703804,345.0,418.0
1411,1685095703804,486.0,468.0
1412,1685095703804,395.0,472.0
1413,1685095703804,473.0,435.0
1414,1685095703839,434.0,471.0
1415,1685095703839,498.0,430.0
1416,1685095703839,459.0,455.0
1417,1685095703868,475.0,428.0
1418,1685095703868,443.0,391.0
1419,1685095703868,520.0,482.0
1420,1685095703868,383.0,383.0
1421,1685095703899,436.0,427.0
1422,1685095703899,483.0,434.0
1423,1685095703899,368.0,414.0
1424,1685095703930,391.0,412.0
1425,1685095703930,371.0,423.0
1426,1685095703930,456.0,464.0
1427,1685095703930,362.0,456.0
1428,1685095703963,494.0,440.0
1429,1685095703963,426.0,485.0
1430,1685095703963,491.0,424.0
1431,1685095703963,443.0,468.0
1432,1685095704007,489.0,422.0
1433,1685095704007,459.0,418.0
1434,1685095704007,479.0,456.0
1435,1685095704038,378.0,381.0
1436,1685095704038,501.0,448.0
1437,1685095704038,454.0,428.0
1438,1685095704038,359.0,396.0
1439,1685095704073,418.0,408.0
1440,1685095704073,403.0,432.0
1441,1685095704073,416.0,445.0
1442,1685095704105,353.0,427.0
1443,1685095704105,488.0,468.0
1444,1685095704105,404.0,469.0
1445,1685095704105,474.0,437.0
1446,1685095704136,425.0,471.0
1447,1685095704136,492.0,420.0
1448,1685095704136,455.0,434.0
1449,1685095704168,466.0,430.0
1450,1685095704168,432.0,381.0
1451,1685095704168,529.0,478.0
1452,1685095704168,405.0,407.0
1453,1685095704203,408.0,400.0
1454,1685095704203,482.0,430.0
1455,1685095704203,389.0,419.0
1456,1685095704231,376.0,408.0
1457,1685095704231,339.0,416.0
1458,1685095704231,453.0,453.0
1459,1685095704231,381.0,464.0
1460,1685095704262,482.0,437.0
1461,1685095704262,429.0,482.0
1462,1685095704262,497.0,429.0
1463,1685095704262,460.0,460.0
1464,1685095704308,495.0,440.0
1465,1685095704308,459.0,405.0
1466,1685095704308,496.0,468.0
1467,1685095704339,388.0,365.0
1468,1685095704339,476.0,436.0
1469,1685095704339,464.0,433.0
1470,1685095704339,351.0,404.0
1471,1685095704374,397.0,413.0
1472,1685095704374,379.0,405.0
1473,1685095704374,429.0,449.0
1474,1685095704406,355.0,449.0
1475,1685095704406,483.0,443.0
1476,1685095704406,419.0,486.0
1477,1685095704406,489.0,426.0
1478,1685095704439,449.0,471.0
1479,1685095704439,497.0,424.0
1480,1685095704439,469.0,448.0
1481,1685095704474,470.0,438.0
1482,1685095704474,396.0,369.0
1483,1685095704474,511.0,466.0
1484,1685095704474,401.0,404.0
1485,1685095704501,372.0,402.0
1486,1685095704501,460.0,420.0
1487,1685095704501,396.0,431.0
1488,1685095704532,395.0,419.0
1489,1685095704532,353.0,433.0
1490,1685095704532,481.0,462.0
1491,1685095704532,399.0,476.0
1492,1685095704564,478.0,427.0
1493,1685095704564,430.0,475.0
1494,1685095704564,479.0,419.0
1495,1685095704564,445.0,452.0
1496,1685095704607,465.0,416.0
1497,1685095704607,444.0,411.0
1498,1685095704607,514.0,475.0
1499,1685095704639,387.0,385.0
1500,1685095704639,464.0,433.0
1501,1685095704639,491.0,449.0
1502,1685095704639,373.0,416.0
1503,1685095704674,394.0,398.0
1504,1685095704674,367.0,415.0
1505,1685095704674,453.0,462.0
1506,1685095704705,353.0,434.0
1507,1685095704705,477.0,449.0
1508,1685095704705,414.0,475.0
1509,1685095704705,474.0,418.0
1510,1685095704737,440.0,471.0
1511,1685095704737,493.0,425.0
1512,1685095704737,480.0,438.0
1513,1685095704770,486.0,451.0
1514,1685095704770,397.0,382.0
1515,1685095704770,519.0,454.0
1516,1685095704770,428.0,429.0
1517,1685095704800,357.0,386.0
1518,1685095704800,426.0,407.0
1519,1685095704800,389.0,428.0
1520,1685095704832,388.0,423.0
1521,1685095704832,332.0,428.0
1522,1685095704832,476.0,467.0
1523,1685095704832,408.0,484.0
1524,1685095704865,484.0,428.0
1525,1685095704865,439.0,485.0
1526,1685095704865,500.0,427.0
1527,1685095704865,474.0,455.0
1528,1685095704909,480.0,434.0
1529,1685095704909,444.0,385.0
1530,1685095704909,510.0,469.0
1531,1685095704940,381.0,388.0
1532,1685095704940,413.0,414.0
1533,1685095704940,477.0,438.0
1534,1685095704940,373.0,423.0
1535,1685095704976,372.0,389.0
1536,1685095704976,358.0,429.0
1537,1685095704976,468.0,461.0
1538,1685095705008,370.0,453.0
1539,1685095705008,485.0,450.0
1540,1685095705008,434.0,487.0
1541,1685095705008,496.0,426.0
1542,1685095705038,453.0,466.0
1543,1685095705038,479.0,421.0
1544,1685095705038,457.0,425.0
1545,1685095705070,480.0,454.0
1546,1685095705070,364.0,368.0
1547,1685095705070,485.0,441.0
1548,1685095705070,455.0,437.0
1549,1685095705103,366.0,406.0
1550,1685095705103,417.0,406.0
1551,1685095705103,393.0,431.0
1552,1685095705133,432.0,448.0
1553,1685095705133,352.0,422.0
1554,1685095705133,484.0,463.0
1555,1685095705133,419.0,481.0
1556,1685095705165,481.0,444.0
1557,1685095705165,430.0,462.0
1558,1685095705165,494.0,423.0
1559,1685095705165,451.0,443.0
1560,1685095705210,470.0,441.0
1561,1685095705210,414.0,382.0
1562,1685095705210,524.0,473.0
1563,1685095705241,416.0,415.0
1564,1685095705241,398.0,402.0
1565,1685095705241,466.0,428.0
1566,1685095705241,390.0,428.0
1567,1685095705276,392.0,428.0
1568,1685095705276,351.0,416.0
1569,1685095705276,476.0,461.0
1570,1685095705308,384.0,472.0
1571,1685095705308,477.0,417.0
1572,1685095705308,423.0,472.0
1573,1685095705308,483.0,425.0
1574,1685095705339,452.0,458.0
1575,1685095705339,477.0,428.0
1576,1685095705339,463.0,404.0
1577,1685095705371,510.0,473.0
1578,1685095705371,379.0,380.0
1579,1685095705371,475.0,429.0
1580,1685095705371,479.0,438.0
1581,1685095705402,361.0,410.0
1582,1685095705402,392.0,416.0
1583,1685095705402,373.0,414.0
1584,1685095705442,430.0,455.0
1585,1685095705442,348.0,456.0
1586,1685095705442,486.0,451.0
1587,1685095705442,424.0,492.0
1588,1685095705472,487.0,433.0
1589,1685095705472,447.0,479.0
1590,1685095705472,498.0,428.0
1591,1685095705472,479.0,437.0
1592,1685095705509,475.0,448.0
1593,1685095705509,390.0,358.0
1594,1685095705509,510.0,466.0
1595,1685095705542,415.0,418.0
1596,1685095705542,359.0,391.0
1597,1685095705542,435.0,416.0
1598,1685095705542,393.0,437.0
1599,1685095705576,403.0,431.0
1600,1685095705576,348.0,425.0
1601,1685095705576,488.0,463.0
1602,1685095705608,396.0,476.0
1603,1685095705608,494.0,432.0
1604,1685095705608,437.0,479.0
1605,1685095705608,497.0,424.0
1606,1685095705639,457.0,449.0
1607,1685095705639,461.0,423.0
1608,1685095705639,444.0,407.0
1609,1685095705672,508.0,468.0
1610,1685095705672,384.0,396.0
1611,1685095705672,439.0,419.0
1612,1685095705672,481.0,444.0
1613,1685095705706,383.0,419.0
1614,1685095705706,385.0,399.0
1615,1685095705706,375.0,432.0
1616,1685095705734,464.0,451.0
1617,1685095705734,366.0,455.0
1618,1685095705734,488.0,450.0
1619,1685095705734,424.0,482.0
1620,1685095705766,480.0,415.0
1621,1685095705766,438.0,469.0
1622,1685095705766,486.0,417.0
1623,1685095705766,461.0,413.0
1624,1685095705810,478.0,467.0
1625,1685095705810,388.0,387.0
1626,1685095705810,515.0,456.0
1627,1685095705841,456.0,433.0
1628,1685095705841,355.0,393.0
1629,1685095705841,410.0,413.0
1630,1685095705841,398.0,427.0
1631,1685095705877,412.0,447.0
1632,1685095705877,339.0,434.0
1633,1685095705877,477.0,458.0
1634,1685095705908,401.0,472.0
1635,1685095705908,476.0,431.0
1636,1685095705908,433.0,483.0
1637,1685095705908,501.0,432.0
1638,1685095705939,470.0,457.0
1639,1685095705939,476.0,434.0
1640,1685095705939,430.0,395.0
1641,1685095705971,519.0,467.0
1642,1685095705971,403.0,408.0
1643,1685095705971,396.0,390.0
1644,1685095705971,471.0,442.0
1645,1685095706003,381.0,416.0
1646,1685095706003,368.0,407.0
1647,1685095706003,343.0,401.0
1648,1685095706034,467.0,475.0
1649,1685095706034,385.0,471.0
1650,1685095706034,487.0,437.0
1651,1685095706034,440.0,502.0
1652,1685095706066,496.0,418.0
1653,1685095706066,461.0,471.0
1654,1685095706066,476.0,424.0
1655,1685095706066,462.0,412.0
1656,1685095706111,495.0,463.0
1657,1685095706111,379.0,376.0
1658,1685095706111,474.0,434.0
1659,1685095706142,457.0,440.0
1660,1685095706142,355.0,401.0
1661,1685095706142,399.0,402.0
1662,1685095706142,383.0,430.0
1663,1685095706177,441.0,454.0
1664,1685095706177,353.0,430.0
1665,1685095706177,486.0,448.0
1666,1685095706210,422.0,485.0
1667,1685095706210,486.0,426.0
1668,1685095706210,439.0,469.0
1669,1685095706210,494.0,424.0
1670,1685095706241,469.0,445.0
1671,1685095706241,466.0,432.0
1672,1685095706241,400.0,376.0
1673,1685095706277,520.0,467.0
1674,1685095706277,406.0,405.0
1675,1685095706277,380.0,402.0
1676,1685095706277,455.0,416.0
1677,1685095706304,396.0,423.0
1678,1685095706304,391.0,433.0
1679,1685095706304,351.0,412.0
1680,1685095706335,479.0,470.0
1681,1685095706335,394.0,474.0
1682,1685095706335,476.0,431.0
1683,1685095706335,421.0,465.0
1684,1685095706367,481.0,420.0
1685,1685095706367,446.0,444.0
1686,1685095706367,465.0,429.0
1687,1685095706367,452.0,409.0
1688,1685095706411,512.0,478.0
1689,1685095706411,379.0,384.0
1690,1685095706411,461.0,433.0
1691,1685095706443,482.0,442.0
1692,1685095706443,367.0,410.0
1693,1685095706443,385.0,404.0
1694,1685095706443,364.0,420.0
1695,1685095706479,453.0,466.0
1696,1685095706479,351.0,448.0
1697,1685095706479,490.0,452.0
1698,1685095706510,420.0,480.0
1699,1685095706510,492.0,434.0
1700,1685095706510,451.0,466.0
1701,1685095706510,491.0,431.0
1702,1685095706543,472.0,437.0
1703,1685095706543,476.0,446.0
1704,1685095706543,398.0,385.0
1705,1685095706573,507.0,456.0
1706,1685095706573,430.0,423.0
1707,1685095706573,366.0,403.0
1708,1685095706573,428.0,405.0
1709,1685095706605,391.0,437.0
1710,1685095706605,397.0,418.0
1711,1685095706605,337.0,425.0
1712,1685095706636,483.0,471.0
1713,1685095706636,401.0,473.0
1714,1685095706636,478.0,424.0
1715,1685095706636,429.0,477.0
1716,1685095706667,498.0,432.0
1717,1685095706667,463.0,446.0
1718,1685095706667,465.0,428.0
1719,1685095706667,434.0,400.0
1720,1685095706712,524.0,471.0
1721,1685095706712,392.0,396.0
1722,1685095706712,415.0,422.0
1723,1685095706743,474.0,432.0
1724,1685095706743,381.0,433.0
1725,1685095706743,374.0,401.0
1726,1685095706743,351.0,398.0
1727,1685095706779,463.0,476.0
1728,1685095706779,375.0,466.0
1729,1685095706779,499.0,457.0
1730,1685095706810,433.0,479.0
1731,1685095706810,491.0,429.0
1732,1685095706810,458.0,470.0
1733,1685095706810,487.0,424.0
1734,1685095706842,468.0,432.0
1735,1685095706842,496.0,450.0
1736,1685095706842,381.0,388.0
1737,1685095706874,485.0,438.0
1738,1685095706874,454.0,434.0
1739,1685095706874,357.0,408.0
1740,1685095706874,401.0,399.0
1741,1685095706905,389.0,432.0
1742,1685095706905,432.0,441.0
1743,1685095706905,350.0,437.0
1744,1685095706936,487.0,458.0
1745,1685095706936,408.0,478.0
1746,1685095706936,477.0,413.0
1747,1685095706936,437.0,477.0
1748,1685095706968,490.0,422.0
1749,1685095706968,461.0,440.0
1750,1685095706968,466.0,434.0
1751,1685095706968,408.0,388.0
1752,1685095707013,523.0,465.0
1753,1685095707013,406.0,388.0
1754,1685095707013,380.0,404.0
1755,1685095707044,459.0,420.0
1756,1685095707044,394.0,444.0
1757,1685095707044,384.0,406.0
1758,1685095707044,354.0,428.0
1759,1685095707080,480.0,467.0
1760,1685095707080,386.0,468.0
1761,1685095707080,485.0,440.0
1762,1685095707112,433.0,466.0
1763,1685095707112,490.0,430.0
1764,1685095707112,452.0,457.0
1765,1685095707112,475.0,424.0
1766,1685095707144,454.0,410.0
1767,1685095707144,510.0,468.0
1768,1685095707144,379.0,381.0
1769,1685095707176,475.0,428.0
1770,1685095707176,486.0,449.0
1771,1685095707176,361.0,410.0
1772,1685095707176,392.0,406.0
1773,1685095707213,375.0,413.0
1774,1685095707213,436.0,446.0
1775,1685095707213,353.0,461.0
1776,1685095707246,486.0,454.0
1777,1685095707246,419.0,475.0
1778,1685095707246,482.0,427.0
1779,1685095707246,448.0,464.0
1780,1685095707270,495.0,421.0
1781,1685095707270,484.0,441.0
1782,1685095707270,477.0,447.0
1783,1685095707270,396.0,374.0
1784,1685095707314,517.0,461.0
1785,1685095707314,409.0,402.0
1786,1685095707314,355.0,389.0
1787,1685095707345,429.0,425.0
1788,1685095707345,399.0,432.0
1789,1685095707345,395.0,422.0
1790,1685095707345,344.0,425.0
1791,1685095707380,487.0,462.0
1792,1685095707380,408.0,476.0
1793,1685095707380,487.0,434.0
1794,1685095707413,442.0,476.0
1795,1685095707413,498.0,428.0
1796,1685095707413,466.0,453.0
1797,1685095707413,467.0,431.0
1798,1685095707443,442.0,401.0
1799,1685095707443,513.0,460.0
1800,1685095707443,373.0,381.0
1801,1685095707475,436.0,419.0
1802,1685095707475,486.0,446.0
1803,1685095707475,380.0,417.0
1804,1685095707475,379.0,403.0
1805,1685095707506,365.0,422.0
1806,1685095707506,479.0,473.0
1807,1685095707506,372.0,465.0
1808,1685095707537,481.0,445.0
1809,1685095707537,431.0,480.0
1810,1685095707537,482.0,422.0
1811,1685095707537,445.0,471.0
1812,1685095707569,480.0,416.0
1813,1685095707569,462.0,427.0
1814,1685095707569,487.0,453.0
1815,1685095707569,377.0,383.0
1816,1685095707614,510.0,459.0
1817,1685095707614,460.0,443.0
1818,1685095707614,362.0,402.0
1819,1685095707645,417.0,406.0
1820,1685095707645,401.0,424.0
1821,1685095707645,415.0,443.0
1822,1685095707645,342.0,427.0
1823,1685095707681,482.0,474.0
1824,1685095707681,409.0,495.0
1825,1685095707681,480.0,428.0
1826,1685095707712,437.0,472.0
1827,1685095707712,502.0,428.0
1828,1685095707712,470.0,445.0
1829,1685095707712,479.0,440.0
1830,1685095707744,429.0,402.0
1831,1685095707744,525.0,463.0
1832,1685095707744,398.0,410.0
1833,1685095707775,380.0,385.0
1834,1685095707775,468.0,440.0
1835,1685095707775,375.0,423.0
1836,1685095707775,370.0,407.0
1837,1685095707807,348.0,404.0
1838,1685095707807,471.0,467.0
1839,1685095707807,374.0,463.0
1840,1685095707847,479.0,441.0
1841,1685095707847,438.0,478.0
1842,1685095707847,499.0,426.0
1843,1685095707847,461.0,465.0
1844,1685095707870,482.0,424.0
1845,1685095707870,464.0,416.0
1846,1685095707870,502.0,479.0
1847,1685095707870,375.0,381.0
1848,1685095707915,468.0,415.0
1849,1685095707915,461.0,437.0
1850,1685095707915,359.0,404.0
1851,1685095707947,395.0,403.0
1852,1685095707947,388.0,429.0
1853,1685095707947,438.0,480.0
1854,1685095707947,351.0,436.0
1855,1685095707982,493.0,463.0
1856,1685095707982,432.0,484.0
1857,1685095707982,485.0,425.0
1858,1685095708014,438.0,487.0
1859,1685095708014,482.0,424.0
1860,1685095708014,465.0,439.0
1861,1685095708014,463.0,438.0
1862,1685095708045,396.0,379.0
1863,1685095708045,513.0,464.0
1864,1685095708045,418.0,420.0
1865,1685095708077,371.0,394.0
1866,1685095708077,448.0,419.0
1867,1685095708077,397.0,421.0
1868,1685095708077,402.0,434.0
1869,1685095708108,360.0,416.0
1870,1685095708108,474.0,468.0
1871,1685095708108,404.0,470.0
1872,1685095708139,475.0,429.0
1873,1685095708139,427.0,469.0
1874,1685095708139,493.0,429.0
1875,1685095708139,443.0,457.0
1876,1685095708171,461.0,419.0
1877,1685095708171,447.0,424.0
1878,1685095708171,516.0,469.0
1879,1685095708171,382.0,394.0
1880,1685095708215,458.0,423.0
1881,1685095708215,489.0,437.0
1882,1685095708215,376.0,420.0
1883,1685095708248,392.0,410.0
1884,1685095708248,361.0,424.0
1885,1685095708248,448.0,450.0
1886,1685095708248,365.0,452.0
1887,1685095708282,483.0,450.0
1888,1685095708282,418.0,475.0
1889,1685095708282,483.0,425.0
1890,1685095708313,442.0,465.0
1891,1685095708313,496.0,426.0
1892,1685095708313,472.0,433.0
1893,1685095708313,483.0,451.0
1894,1685095708345,389.0,381.0
1895,1685095708345,506.0,459.0
1896,1685095708345,437.0,425.0
1897,1685095708376,357.0,393.0
1898,1685095708376,410.0,396.0
1899,1685095708376,395.0,425.0
1900,1685095708376,407.0,436.0
1901,1685095708407,345.0,433.0
1902,1685095708407,474.0,461.0
1903,1685095708407,411.0,474.0
1904,1685095708439,486.0,445.0
1905,1685095708439,438.0,470.0
1906,1685095708439,504.0,431.0
1907,1685095708439,464.0,448.0
1908,1685095708470,469.0,429.0
1909,1685095708470,431.0,392.0
1910,1685095708470,521.0,471.0
1911,1685095708470,385.0,396.0
1912,1685095708515,393.0,400.0
1913,1685095708515,478.0,439.0
1914,1685095708515,381.0,429.0
1915,1685095708547,380.0,402.0
1916,1685095708547,360.0,414.0
1917,1685095708547,471.0,461.0
1918,1685095708547,386.0,466.0
1919,1685095708583,491.0,450.0
1920,1685095708583,433.0,473.0
1921,1685095708583,485.0,431.0
1922,1685095708614,445.0,467.0
1923,1685095708614,470.0,415.0
1924,1685095708614,452.0,411.0
1925,1685095708614,493.0,455.0
1926,1685095708646,377.0,382.0
1927,1685095708646,476.0,442.0
1928,1685095708646,471.0,438.0
1929,1685095708678,356.0,395.0
1930,1685095708678,413.0,404.0
1931,1685095708678,395.0,439.0
1932,1685095708678,448.0,456.0
1933,1685095708709,354.0,435.0
1934,1685095708709,482.0,462.0
1935,1685095708709,412.0,469.0
1936,1685095708740,469.0,423.0
1937,1685095708740,432.0,481.0
1938,1685095708740,484.0,417.0
1939,1685095708740,452.0,441.0
1940,1685095708772,471.0,440.0
1941,1685095708772,408.0,391.0
1942,1685095708772,523.0,469.0
1943,1685095708772,418.0,423.0
1944,1685095708817,380.0,405.0
1945,1685095708817,452.0,416.0
1946,1685095708817,396.0,434.0
1947,1685095708849,381.0,427.0
1948,1685095708849,352.0,433.0
1949,1685095708849,478.0,457.0
1950,1685095708849,393.0,470.0
1951,1685095708884,474.0,428.0
1952,1685095708884,424.0,477.0
1953,1685095708884,497.0,431.0
1954,1685095708915,464.0,460.0
1955,1685095708915,481.0,426.0
1956,1685095708915,457.0,409.0
1957,1685095708915,515.0,469.0
1958,1685095708946,383.0,384.0
1959,1685095708946,460.0,428.0
1960,1685095708946,481.0,443.0
1961,1685095708981,362.0,412.0
1962,1685095708981,379.0,398.0
1963,1685095708981,374.0,414.0
1964,1685095708981,442.0,446.0
1965,1685095709011,355.0,455.0
1966,1685095709011,488.0,445.0
1967,1685095709011,431.0,483.0
1968,1685095709042,492.0,430.0
1969,1685095709042,453.0,474.0
1970,1685095709042,497.0,426.0
1971,1685095709042,477.0,436.0
1972,1685095709074,474.0,449.0
1973,1685095709074,385.0,366.0
1974,1685095709074,505.0,460.0
1975,1685095709074,422.0,423.0
1976,1685095709117,357.0,397.0
1977,1685095709117,425.0,408.0
1978,1685095709117,390.0,426.0
1979,1685095709149,405.0,430.0
1980,1685095709149,358.0,448.0
1981,1685095709149,490.0,464.0
1982,1685095709149,411.0,480.0
1983,1685095709184,482.0,437.0
1984,1685095709184,428.0,469.0
1985,1685095709184,496.0,422.0
1986,1685095709217,454.0,459.0
1987,1685095709217,462.0,421.0
1988,1685095709217,433.0,401.0
1989,1685095709217,518.0,467.0
1990,1685095709247,389.0,399.0
1991,1685095709247,413.0,412.0
1992,1685095709247,487.0,435.0
1993,1685095709279,387.0,424.0
1994,1685095709279,388.0,406.0
1995,1685095709279,372.0,432.0
1996,1685095709279,473.0,460.0
1997,1685095709311,381.0,471.0
1998,1685095709311,480.0,443.0
1999,1685095709311,425.0,471.0
2000,1685095709344,478.0,428.0
2001,1685095709344,445.0,461.0
2002,1685095709344,480.0,416.0
2003,1685095709344,460.0,426.0
2004,1685095709374,497.0,460.0
2005,1685095709374,383.0,381.0
2006,1685095709374,500.0,448.0
2007,1685095709374,464.0,432.0
2008,1685095709419,354.0,407.0
2009,1685095709419,413.0,401.0
2010,1685095709419,392.0,432.0
2011,1685095709450,419.0,440.0
2012,1685095709450,345.0,434.0
2013,1685095709450,481.0,454.0
2014,1685095709450,408.0,484.0
2015,1685095709486,477.0,427.0
2016,1685095709486,444.0,475.0
2017,1685095709486,505.0,426.0
2018,1685095709517,463.0,444.0
2019,1685095709517,476.0,436.0
2020,1685095709517,409.0,381.0
2021,1685095709517,522.0,467.0
2022,1685095709548,407.0,397.0
2023,1685095709548,374.0,403.0
2024,1685095709548,457.0,418.0
2025,1685095709580,384.0,428.0
2026,1685095709580,379.0,413.0
2027,1685095709580,346.0,423.0
2028,1685095709580,473.0,458.0
2029,1685095709611,396.0,480.0
2030,1685095709611,487.0,442.0
2031,1685095709611,437.0,469.0
2032,1685095709643,507.0,440.0
2033,1685095709643,451.0,457.0
2034,1685095709643,475.0,423.0
2035,1685095709643,457.0,414.0
2036,1685095709674,500.0,459.0
2037,1685095709674,373.0,386.0
2038,1685095709674,460.0,432.0
2039,1685095709674,485.0,436.0
2040,1685095709718,365.0,419.0
2041,1685095709718,393.0,406.0
2042,1685095709718,378.0,418.0
2043,1685095709750,452.0,455.0
2044,1685095709750,361.0,448.0
2045,1685095709750,491.0,450.0
2046,1685095709750,427.0,483.0
2047,1685095709785,479.0,431.0
2048,1685095709785,438.0,466.0
2049,1685095709785,490.0,422.0
2050,1685095709816,470.0,442.0
2051,1685095709816,475.0,455.0
2052,1685095709816,390.0,375.0
2053,1685095709816,516.0,455.0
2054,1685095709847,420.0,423.0
2055,1685095709847,359.0,388.0
2056,1685095709847,438.0,419.0
2057,1685095709879,400.0,441.0
2058,1685095709879,409.0,431.0
2059,1685095709879,365.0,428.0
2060,1685095709879,483.0,458.0
2061,1685095709910,409.0,482.0
2062,1685095709910,476.0,433.0
2063,1685095709910,428.0,466.0
2064,1685095709941,494.0,432.0
2065,1685095709941,453.0,456.0
2066,1685095709941,468.0,428.0
2067,1685095709941,442.0,403.0
2068,1685095709973,512.0,463.0
2069,1685095709973,397.0,400.0
2070,1685095709973,431.0,406.0
2071,1685095709973,478.0,458.0
2072,1685095710019,378.0,424.0
2073,1685095710019,387.0,402.0
2074,1685095710019,371.0,421.0
2075,1685095710050,457.0,446.0
2076,1685095710050,377.0,465.0
2077,1685095710050,488.0,442.0
2078,1685095710050,425.0,480.0
2079,1685095710087,487.0,432.0
2080,1685095710087,450.0,460.0
2081,1685095710087,490.0,427.0
2082,1685095710119,468.0,429.0
2083,1685095710119,497.0,456.0
2084,1685095710119,383.0,382.0
2085,1685095710119,507.0,458.0
2086,1685095710150,455.0,437.0
2087,1685095710150,351.0,398.0
2088,1685095710150,410.0,403.0
2089,1685095710182,382.0,420.0
2090,1685095710182,412.0,440.0
2091,1685095710182,338.0,436.0
2092,1685095710182,473.0,443.0
2093,1685095710214,415.0,484.0
2094,1685095710214,488.0,420.0
2095,1685095710214,444.0,481.0
2096,1685095710246,501.0,427.0
2097,1685095710246,467.0,442.0
2098,1685095710246,476.0,437.0
2099,1685095710246,416.0,386.0
2100,1685095710280,525.0,454.0
2101,1685095710280,394.0,413.0
2102,1685095710280,384.0,404.0
2103,1685095710280,467.0,433.0
2104,1685095710320,377.0,435.0
2105,1685095710320,375.0,409.0
2106,1685095710320,354.0,419.0
2107,1685095710351,485.0,470.0
2108,1685095710351,387.0,462.0
2109,1685095710351,486.0,432.0
2110,1685095710351,430.0,482.0
2111,1685095710387,489.0,425.0
2112,1685095710387,456.0,460.0
2113,1685095710387,478.0,421.0
2114,1685095710418,451.0,402.0
2115,1685095710418,508.0,477.0
2116,1685095710418,370.0,372.0
2117,1685095710418,465.0,428.0
2118,1685095710449,482.0,446.0
2119,1685095710449,361.0,406.0
2120,1685095710449,399.0,417.0
2121,1685095710486,385.0,429.0
2122,1685095710486,445.0,470.0
2123,1685095710486,353.0,431.0
2124,1685095710486,488.0,450.0
2125,1685095710519,421.0,483.0
2126,1685095710519,483.0,431.0
2127,1685095710519,442.0,466.0
2128,1685095710551,487.0,425.0
2129,1685095710551,464.0,435.0
2130,1685095710551,471.0,454.0
2131,1685095710551,395.0,375.0
2132,1685095710575,521.0,464.0
2133,1685095710575,425.0,426.0
2134,1685095710575,365.0,389.0
2135,1685095710575,448.0,419.0
2136,1685095710620,393.0,434.0
2137,1685095710620,399.0,426.0
2138,1685095710620,343.0,434.0
2139,1685095710653,487.0,466.0
2140,1685095710653,393.0,477.0
2141,1685095710653,478.0,428.0
2142,1685095710653,429.0,471.0
2143,1685095710687,497.0,424.0
2144,1685095710687,456.0,443.0
2145,1685095710687,473.0,416.0
2146,1685095710718,453.0,411.0
2147,1685095710718,514.0,477.0
2148,1685095710718,386.0,377.0
2149,1685095710718,444.0,428.0
2150,1685095710750,487.0,440.0
2151,1685095710750,369.0,416.0
2152,1685095710750,383.0,402.0
2153,1685095710781,355.0,428.0
2154,1685095710781,440.0,454.0
2155,1685095710781,360.0,452.0
2156,1685095710781,489.0,442.0
2157,1685095710814,434.0,486.0
2158,1685095710814,502.0,436.0
2159,1685095710814,460.0,480.0
2160,1685095710844,498.0,425.0
2161,1685095710844,481.0,430.0
2162,1685095710844,484.0,450.0
2163,1685095710844,377.0,376.0
2164,1685095710876,499.0,455.0
2165,1685095710876,438.0,428.0
2166,1685095710876,346.0,405.0
2167,1685095710876,409.0,396.0
2168,1685095710919,382.0,430.0
2169,1685095710919,420.0,448.0
2170,1685095710919,352.0,442.0
2171,1685095710951,492.0,449.0
2172,1685095710951,417.0,473.0
2173,1685095710951,488.0,435.0
2174,1685095710951,440.0,473.0
2175,1685095710988,492.0,419.0
2176,1685095710988,460.0,440.0
2177,1685095710988,468.0,434.0
2178,1685095711021,405.0,378.0
2179,1685095711021,530.0,464.0
2180,1685095711021,389.0,402.0
2181,1685095711021,389.0,397.0
2182,1685095711052,482.0,441.0
2183,1685095711052,385.0,427.0
2184,1685095711052,388.0,412.0
2185,1685095711083,359.0,417.0
2186,1685095711083,479.0,458.0
2187,1685095711083,382.0,468.0
2188,1685095711083,487.0,442.0
2189,1685095711115,419.0,477.0
2190,1685095711115,480.0,417.0
2191,1685095711115,445.0,461.0
2192,1685095711147,478.0,422.0
2193,1685095711147,455.0,423.0
2194,1685095711147,503.0,474.0
2195,1685095711147,385.0,380.0
2196,1685095711179,491.0,436.0
2197,1685095711179,491.0,450.0
2198,1685095711179,364.0,411.0
2199,1685095711179,398.0,414.0
2200,1685095711221,396.0,437.0
2201,1685095711221,434.0,451.0
2202,1685095711221,344.0,447.0
2203,1685095711253,483.0,454.0
2204,1685095711253,412.0,471.0
2205,1685095711253,482.0,444.0
2206,1685095711253,447.0,463.0
2207,1685095711289,503.0,426.0
2208,1685095711289,473.0,445.0
2209,1685095711289,485.0,453.0
2210,1685095711321,409.0,385.0
2211,1685095711321,526.0,461.0
2212,1685095711321,411.0,414.0
2213,1685095711321,359.0,389.0
2214,1685095711352,448.0,412.0
2215,1685095711352,385.0,424.0
2216,1685095711352,372.0,413.0
2217,1685095711383,332.0,420.0
2218,1685095711383,485.0,460.0
2219,1685095711383,405.0,483.0
2220,1685095711383,488.0,432.0
2221,1685095711415,441.0,477.0
2222,1685095711415,498.0,432.0
2223,1685095711415,466.0,453.0
2224,1685095711446,469.0,429.0
2225,1685095711446,442.0,398.0
2226,1685095711446,506.0,464.0
2227,1685095711446,375.0,390.0
2228,1685095711478,451.0,425.0
2229,1685095711478,484.0,446.0
2230,1685095711478,360.0,413.0
2231,1685095711478,375.0,404.0
2232,1685095711522,373.0,438.0
2233,1685095711522,469.0,464.0
2234,1685095711522,355.0,448.0
2235,1685095711554,490.0,450.0
2236,1685095711554,432.0,476.0
2237,1685095711554,481.0,413.0
2238,1685095711554,445.0,456.0
2239,1685095711589,484.0,425.0
2240,1685095711589,459.0,425.0
2241,1685095711589,472.0,452.0
2242,1685095711620,384.0,373.0
2243,1685095711620,516.0,457.0
2244,1685095711620,442.0,426.0
2245,1685095711620,354.0,399.0
2246,1685095711653,421.0,419.0
2247,1685095711653,396.0,437.0
2248,1685095711653,418.0,435.0
2249,1685095711683,351.0,434.0
2250,1685095711683,486.0,465.0
2251,1685095711683,413.0,484.0
2252,1685095711683,473.0,427.0
2253,1685095711715,430.0,473.0
2254,1685095711715,495.0,415.0
2255,1685095711715,460.0,446.0
2256,1685095711746,467.0,429.0
2257,1685095711746,440.0,383.0
2258,1685095711746,528.0,480.0
2259,1685095711746,401.0,398.0
2260,1685095711784,408.0,403.0
2261,1685095711784,481.0,440.0
2262,1685095711784,375.0,420.0
2263,1685095711784,388.0,425.0
2264,1685095711823,353.0,421.0
2265,1685095711823,468.0,464.0
2266,1685095711823,366.0,453.0
2267,1685095711854,479.0,451.0
2268,1685095711854,428.0,473.0
2269,1685095711854,503.0,432.0
2270,1685095711854,460.0,467.0
2271,1685095711889,485.0,418.0
2272,1685095711889,473.0,415.0
2273,1685095711889,500.0,460.0
2274,1685095711922,379.0,372.0
2275,1685095711922,481.0,441.0
2276,1685095711922,464.0,430.0
2277,1685095711922,355.0,408.0
2278,1685095711956,393.0,398.0
2279,1685095711956,378.0,420.0
2280,1685095711956,421.0,454.0
2281,1685095711987,333.0,434.0
2282,1685095711987,485.0,453.0
2283,1685095711987,417.0,476.0
2284,1685095711987,502.0,451.0
2285,1685095712015,452.0,469.0
2286,1685095712015,498.0,421.0
2287,1685095712015,475.0,448.0
2288,1685095712047,472.0,444.0
2289,1685095712047,397.0,376.0
2290,1685095712047,530.0,480.0
2291,1685095712047,398.0,402.0
2292,1685095712078,361.0,393.0
2293,1685095712078,459.0,439.0
2294,1685095712078,388.0,426.0
2295,1685095712078,389.0,426.0
2296,1685095712123,348.0,424.0
2297,1685095712123,490.0,468.0
2298,1685095712123,396.0,476.0
2299,1685095712157,498.0,445.0
2300,1685095712157,430.0,470.0
2301,1685095712157,493.0,421.0
2302,1685095712157,448.0,456.0
2303,1685095712191,474.0,420.0
2304,1685095712191,449.0,401.0
2305,1685095712191,510.0,479.0
2306,1685095712223,374.0,374.0
2307,1685095712223,464.0,427.0
2308,1685095712223,498.0,451.0
2309,1685095712223,369.0,427.0
2310,1685095712254,388.0,408.0
2311,1685095712254,378.0,431.0
2312,1685095712254,462.0,458.0
2313,1685095712285,354.0,457.0
2314,1685095712285,492.0,445.0
2315,1685095712285,415.0,477.0
2316,1685095712285,476.0,415.0
2317,1685095712320,439.0,459.0
2318,1685095712320,499.0,429.0
2319,1685095712320,473.0,440.0
2320,1685095712349,477.0,450.0
2321,1685095712349,401.0,382.0
2322,1685095712349,518.0,464.0
2323,1685095712349,436.0,421.0
2324,1685095712380,351.0,380.0
2325,1685095712380,427.0,412.0
2326,1685095712380,393.0,433.0
2327,1685095712380,397.0,425.0
2328,1685095712424,335.0,430.0
2329,1685095712424,474.0,454.0
2330,1685095712424,398.0,481.0
2331,1685095712456,482.0,427.0
2332,1685095712456,442.0,478.0
2333,1685095712456,510.0,435.0
2334,1685095712456,475.0,454.0
2335,1685095712491,473.0,430.0
2336,1685095712491,446.0,392.0
2337,1685095712491,522.0,465.0
2338,1685095712522,380.0,395.0
2339,1685095712522,412.0,400.0
2340,1685095712522,479.0,445.0
2341,1685095712522,363.0,413.0
2342,1685095712553,375.0,399.0
2343,1685095712553,351.0,427.0
2344,1685095712553,455.0,451.0
2345,1685095712585,385.0,465.0
2346,1685095712585,492.0,456.0
2347,1685095712585,435.0,478.0
2348,1685095712585,496.0,436.0
2349,1685095712617,462.0,466.0
2350,1685095712617,490.0,426.0
2351,1685095712617,464.0,408.0
2352,1685095712658,485.0,445.0
2353,1685095712658,367.0,381.0
2354,1685095712658,483.0,444.0
2355,1685095712658,453.0,431.0
2356,1685095712682,342.0,402.0
2357,1685095712682,405.0,401.0
2358,1685095712682,385.0,446.0
2359,1685095712682,440.0,436.0
2360,1685095712725,353.0,443.0
2361,1685095712725,487.0,452.0
2362,1685095712725,425.0,470.0
2363,1685095712757,479.0,433.0
2364,1685095712757,441.0,467.0
2365,1685095712757,482.0,410.0
2366,1685095712757,460.0,451.0
2367,1685095712792,471.0,430.0
2368,1685095712792,410.0,376.0
2369,1685095712792,528.0,470.0
2370,1685095712824,399.0,409.0
2371,1685095712824,389.0,401.0
2372,1685095712824,474.0,430.0
2373,1685095712824,389.0,430.0
2374,1685095712856,391.0,430.0
2375,1685095712856,357.0,415.0
2376,1685095712856,484.0,476.0
2377,1685095712887,393.0,473.0
2378,1685095712887,465.0,427.0
2379,1685095712887,421.0,477.0
2380,1685095712887,495.0,416.0
2381,1685095712919,455.0,458.0
2382,1685095712919,473.0,423.0
2383,1685095712919,456.0,418.0
2384,1685095712950,510.0,460.0
2385,1685095712950,380.0,387.0
2386,1685095712950,470.0,434.0
2387,1685095712950,487.0,443.0
2388,1685095712982,360.0,408.0
2389,1685095712982,383.0,407.0
2390,1685095712982,374.0,428.0
2391,1685095712982,445.0,461.0
2392,1685095713026,339.0,440.0
2393,1685095713026,484.0,457.0
2394,1685095713026,429.0,473.0
2395,1685095713057,484.0,435.0
2396,1685095713057,459.0,480.0
2397,1685095713057,498.0,428.0
2398,1685095713057,477.0,431.0
2399,1685095713092,482.0,454.0
2400,1685095713092,393.0,365.0
2401,1685095713092,518.0,460.0
2402,1685095713123,418.0,424.0
2403,1685095713123,353.0,384.0
2404,1685095713123,434.0,424.0
2405,1685095713123,388.0,418.0
2406,1685095713155,394.0,430.0
2407,1685095713155,350.0,419.0
2408,1685095713155,483.0,455.0
2409,1685095713188,405.0,482.0
2410,1685095713188,484.0,439.0
2411,1685095713188,442.0,474.0
2412,1685095713188,502.0,427.0
2413,1685095713225,459.0,447.0
2414,1685095713225,474.0,429.0
2415,1685095713225,440.0,395.0
2416,1685095713252,514.0,469.0
2417,1685095713252,383.0,388.0
2418,1685095713252,424.0,413.0
2419,1685095713252,489.0,439.0
2420,1685095713292,376.0,430.0
2421,1685095713292,376.0,400.0
2422,1685095713292,361.0,436.0
2423,1685095713292,468.0,458.0
2424,1685095713326,366.0,451.0
2425,1685095713326,498.0,445.0
2426,1685095713326,434.0,479.0
2427,1685095713357,487.0,416.0
2428,1685095713357,447.0,461.0
2429,1685095713357,484.0,429.0
2430,1685095713357,469.0,418.0
2431,1685095713397,494.0,449.0
2432,1685095713397,375.0,360.0
2433,1685095713397,490.0,451.0
2434,1685095713412,457.0,438.0
2435,1685095713412,351.0,396.0
2436,1685095713412,416.0,420.0
2437,1685095713412,388.0,429.0
2438,1685095713452,426.0,451.0
2439,1685095713452,359.0,442.0
2440,1685095713452,487.0,456.0
2441,1685095713491,414.0,492.0
2442,1685095713491,480.0,433.0
2443,1685095713491,436.0,472.0
2444,1685095713491,499.0,423.0
2445,1685095713522,469.0,436.0
2446,1685095713522,473.0,436.0
2447,1685095713522,414.0,378.0
2448,1685095713554,523.0,477.0
2449,1685095713554,400.0,412.0
2450,1685095713554,383.0,396.0
2451,1685095713554,466.0,430.0
2452,1685095713585,383.0,429.0
2453,1685095713585,391.0,426.0
2454,1685095713585,347.0,431.0
2455,1685095713585,469.0,460.0
2456,1685095713626,381.0,473.0
2457,1685095713626,481.0,432.0
2458,1685095713626,431.0,482.0
2459,1685095713658,504.0,428.0
2460,1685095713658,449.0,441.0
2461,1685095713658,472.0,426.0
2462,1685095713658,456.0,406.0
2463,1685095713694,513.0,471.0
2464,1685095713694,384.0,378.0
2465,1685095713694,480.0,434.0
2466,1685095713725,485.0,439.0
2467,1685095713725,361.0,408.0
2468,1685095713725,390.0,405.0
2469,1685095713725,379.0,426.0
2470,1685095713757,445.0,463.0
2471,1685095713757,347.0,445.0
2472,1685095713757,487.0,454.0
2473,1685095713788,421.0,494.0
2474,1685095713788,486.0,421.0
2475,1685095713788,453.0,477.0
2476,1685095713788,495.0,412.0
2477,1685095713821,474.0,446.0
2478,1685095713821,482.0,439.0
2479,1685095713821,390.0,378.0
2480,1685095713853,521.0,474.0
2481,1685095713853,410.0,408.0
2482,1685095713853,342.0,385.0
2483,1685095713853,433.0,420.0
2484,1685095713883,388.0,434.0
2485,1685095713883,401.0,438.0
2486,1685095713883,348.0,425.0
2487,1685095713883,488.0,458.0
2488,1685095713928,405.0,478.0
2489,1685095713928,484.0,425.0
2490,1685095713928,444.0,485.0
2491,1685095713959,497.0,421.0
2492,1685095713959,455.0,447.0
2493,1685095713959,475.0,417.0
2494,1685095713959,429.0,394.0
2495,1685095713994,514.0,462.0
2496,1685095713994,373.0,394.0
2497,1685095713994,427.0,421.0
2498,1685095714026,497.0,458.0
2499,1685095714026,366.0,409.0
2500,1685095714026,391.0,418.0
2501,1685095714026,366.0,425.0
2502,1685095714057,470.0,474.0
2503,1685095714057,358.0,440.0
2504,1685095714057,487.0,459.0
2505,1685095714094,429.0,475.0
2506,1685095714094,486.0,421.0
2507,1685095714094,440.0,466.0
2508,1685095714094,476.0,417.0
2509,1685095714122,460.0,426.0
2510,1685095714122,491.0,449.0
2511,1685095714122,387.0,380.0
2512,1685095714150,506.0,455.0
2513,1685095714150,455.0,440.0
2514,1685095714150,350.0,403.0
2515,1685095714150,420.0,403.0
2516,1685095714182,391.0,429.0
2517,1685095714182,415.0,452.0
2518,1685095714182,330.0,421.0
2519,1685095714182,479.0,449.0
2520,1685095714228,415.0,482.0
2521,1685095714228,478.0,428.0
2522,1685095714228,444.0,474.0
2523,1685095714259,501.0,432.0
2524,1685095714259,470.0,450.0
2525,1685095714259,473.0,431.0
2526,1685095714259,407.0,391.0
2527,1685095714294,531.0,476.0
2528,1685095714294,402.0,413.0
2529,1685095714294,380.0,391.0
2530,1685095714327,467.0,430.0
2531,1685095714327,371.0,421.0
2532,1685095714327,373.0,406.0
2533,1685095714327,340.0,413.0
2534,1685095714358,474.0,453.0
2535,1685095714358,390.0,472.0
2536,1685095714358,484.0,437.0
2537,1685095714389,436.0,471.0
2538,1685095714389,504.0,447.0
2539,1685095714389,458.0,447.0
2540,1685095714389,482.0,428.0
2541,1685095714421,460.0,413.0
2542,1685095714421,503.0,463.0
2543,1685095714421,369.0,368.0
2544,1685095714452,465.0,432.0
2545,1685095714452,470.0,453.0
2546,1685095714452,354.0,418.0
2547,1685095714452,398.0,408.0
2548,1685095714484,378.0,425.0
2549,1685095714484,445.0,466.0
2550,1685095714484,347.0,445.0
2551,1685095714484,495.0,452.0
2552,1685095714528,429.0,480.0
2553,1685095714528,487.0,432.0
2554,1685095714528,443.0,459.0
2555,1685095714560,484.0,428.0
2556,1685095714560,467.0,439.0
2557,1685095714560,471.0,434.0
2558,1685095714560,385.0,364.0
2559,1685095714595,523.0,486.0
2560,1685095714595,420.0,411.0
2561,1685095714595,379.0,398.0
2562,1685095714627,454.0,423.0
2563,1685095714627,392.0,425.0
2564,1685095714627,402.0,434.0
2565,1685095714627,348.0,429.0
2566,1685095714661,486.0,461.0
2567,1685095714661,394.0,468.0
2568,1685095714661,470.0,429.0
2569,1685095714691,430.0,468.0
2570,1685095714691,492.0,427.0
2571,1685095714691,451.0,448.0
2572,1685095714691,464.0,427.0
2573,1685095714721,451.0,410.0
2574,1685095714721,526.0,466.0
2575,1685095714721,381.0,387.0
2576,1685095714752,432.0,410.0
2577,1685095714752,492.0,453.0
2578,1685095714752,371.0,417.0
2579,1685095714752,378.0,409.0
2580,1685095714785,360.0,421.0
2581,1685095714785,454.0,459.0
2582,1685095714785,350.0,450.0
2583,1685095714785,497.0,449.0
2584,1685095714829,424.0,476.0
2585,1685095714829,487.0,418.0
2586,1685095714829,453.0,475.0
2587,1685095714860,498.0,424.0
2588,1685095714860,482.0,432.0
2589,1685095714860,489.0,461.0
2590,1685095714860,383.0,364.0
2591,1685095714896,507.0,458.0
2592,1685095714896,441.0,431.0
2593,1685095714896,345.0,389.0
2594,1685095714927,407.0,410.0
2595,1685095714927,379.0,429.0
2596,1685095714927,414.0,432.0
2597,1685095714927,336.0,432.0
2598,1685095714959,489.0,463.0
2599,1685095714959,413.0,473.0
2600,1685095714959,488.0,438.0
2601,1685095714991,440.0,475.0
2602,1685095714991,491.0,410.0
2603,1685095714991,462.0,456.0
2604,1685095714991,468.0,425.0
2605,1685095715024,420.0,394.0
2606,1685095715024,509.0,475.0
2607,1685095715024,388.0,396.0
2608,1685095715056,388.0,408.0
2609,1685095715056,479.0,440.0
2610,1685095715056,378.0,420.0
2611,1685095715056,379.0,404.0
2612,1685095715086,354.0,436.0
2613,1685095715086,479.0,458.0
2614,1685095715086,389.0,477.0
2615,1685095715086,478.0,437.0
2616,1685095715131,432.0,478.0
2617,1685095715131,493.0,422.0
2618,1685095715131,445.0,453.0
2619,1685095715162,473.0,421.0
2620,1685095715162,449.0,425.0
2621,1685095715162,499.0,453.0
2622,1685095715162,376.0,370.0
2623,1685095715197,482.0,443.0
2624,1685095715197,472.0,435.0
2625,1685095715197,331.0,400.0
2626,1685095715229,413.0,423.0
2627,1685095715229,395.0,437.0
2628,1685095715229,451.0,472.0
2629,1685095715229,351.0,436.0
2630,1685095715260,478.0,451.0
2631,1685095715260,417.0,475.0
2632,1685095715260,471.0,419.0
2633,1685095715292,441.0,487.0
2634,1685095715292,494.0,423.0
2635,1685095715292,470.0,449.0
2636,1685095715292,475.0,440.0
2637,1685095715323,406.0,385.0
2638,1685095715323,529.0,477.0
2639,1685095715323,409.0,410.0
2640,1685095715357,366.0,397.0
2641,1685095715357,450.0,419.0
2642,1685095715357,371.0,422.0
2643,1685095715357,389.0,428.0
2644,1685095715386,331.0,417.0
2645,1685095715386,483.0,465.0
2646,1685095715386,399.0,473.0
2647,1685095715386,481.0,439.0
2648,1685095715431,440.0,483.0
2649,1685095715431,503.0,425.0
2650,1685095715431,465.0,466.0
2651,1685095715463,486.0,429.0
2652,1685095715463,455.0,407.0
2653,1685095715463,526.0,473.0
2654,1685095715463,373.0,378.0
2655,1685095715497,446.0,422.0
2656,1685095715497,482.0,446.0
2657,1685095715497,352.0,407.0
2658,1685095715530,369.0,396.0
2659,1685095715530,369.0,426.0
2660,1685095715530,456.0,464.0
2661,1685095715530,350.0,437.0
2662,1685095715564,500.0,455.0
2663,1685095715564,441.0,483.0
2664,1685095715564,497.0,423.0
2665,1685095715593,457.0,472.0
2666,1685095715593,490.0,417.0
2667,1685095715593,471.0,441.0
2668,1685095715593,473.0,436.0
2669,1685095715624,380.0,377.0
2670,1685095715624,502.0,464.0
2671,1685095715624,428.0,425.0
2672,1685095715658,357.0,414.0
2673,1685095715658,420.0,412.0
2674,1685095715658,394.0,436.0
2675,1685095715658,417.0,449.0
2676,1685095715687,350.0,426.0
2677,1685095715687,506.0,476.0
2678,1685095715687,411.0,477.0
2679,1685095715687,479.0,432.0
2680,1685095715731,437.0,472.0
2681,1685095715731,480.0,411.0
2682,1685095715731,463.0,446.0
2683,1685095715763,477.0,435.0
2684,1685095715763,415.0,388.0
2685,1685095715763,524.0,472.0
2686,1685095715763,397.0,397.0
2687,1685095715798,407.0,395.0
2688,1685095715798,498.0,449.0
2689,1685095715798,383.0,421.0
2690,1685095715829,384.0,411.0
2691,1685095715829,352.0,424.0
2692,1685095715829,468.0,466.0
2693,1685095715829,367.0,455.0
2694,1685095715861,480.0,439.0
2695,1685095715861,423.0,473.0
2696,1685095715861,491.0,420.0
2697,1685095715893,449.0,463.0
2698,1685095715893,491.0,420.0
2699,1685095715893,467.0,425.0
2700,1685095715893,507.0,456.0
2701,1685095715926,384.0,377.0
2702,1685095715926,488.0,444.0
2703,1685095715926,466.0,431.0
2704,1685095715956,353.0,407.0
2705,1685095715956,407.0,407.0
2706,1685095715956,412.0,444.0
2707,1685095715956,444.0,451.0
2708,1685095715988,328.0,429.0
2709,1685095715988,488.0,466.0
2710,1685095715988,428.0,483.0
2711,1685095715988,486.0,435.0
2712,1685095716032,453.0,477.0
2713,1685095716032,500.0,416.0
2714,1685095716032,473.0,451.0
2715,1685095716063,481.0,437.0
2716,1685095716063,403.0,382.0
2717,1685095716063,520.0,452.0
2718,1685095716063,395.0,400.0
2719,1685095716098,359.0,397.0
2720,1685095716098,455.0,421.0
2721,1685095716098,384.0,437.0
2722,1685095716130,388.0,416.0
2723,1685095716130,348.0,431.0
2724,1685095716130,476.0,459.0
2725,1685095716130,399.0,479.0
2726,1685095716162,488.0,443.0
2727,1685095716162,440.0,479.0
2728,1685095716162,501.0,416.0
2729,1685095716193,456.0,456.0
2730,1685095716193,467.0,428.0
2731,1685095716193,446.0,406.0
2732,1685095716193,509.0,470.0
2733,1685095716224,375.0,387.0
2734,1685095716224,458.0,428.0
2735,1685095716224,487.0,443.0
2736,1685095716256,367.0,422.0
2737,1685095716256,387.0,401.0
2738,1685095716256,375.0,429.0
2739,1685095716256,467.0,466.0
2740,1685095716288,359.0,450.0
2741,1685095716288,500.0,456.0
2742,1685095716288,425.0,478.0
2743,1685095716288,478.0,428.0
2744,1685095716332,445.0,463.0
2745,1685095716332,483.0,424.0
2746,1685095716332,468.0,432.0
2747,1685095716365,479.0,444.0
2748,1685095716365,389.0,376.0
2749,1685095716365,528.0,476.0
2750,1685095716365,428.0,434.0
2751,1685095716400,346.0,400.0
2752,1685095716400,424.0,406.0
2753,1685095716400,394.0,444.0
2754,1685095716431,410.0,444.0
2755,1685095716431,347.0,431.0
2756,1685095716431,476.0,461.0
2757,1685095716431,401.0,478.0
2758,1685095716463,478.0,433.0
2759,1685095716463,440.0,471.0
2760,1685095716463,499.0,428.0
2761,1685095716502,459.0,441.0
2762,1685095716502,472.0,432.0
2763,1685095716502,440.0,400.0
2764,1685095716502,526.0,464.0
2765,1685095716526,394.0,392.0
2766,1685095716526,416.0,430.0
2767,1685095716526,482.0,436.0
2768,1685095716557,372.0,433.0
2769,1685095716557,379.0,403.0
2770,1685095716557,356.0,419.0
2771,1685095716557,466.0,469.0
2772,1685095716589,370.0,459.0
2773,1685095716589,486.0,442.0
2774,1685095716589,435.0,485.0
2775,1685095716589,497.0,437.0
2776,1685095716634,457.0,464.0
2777,1685095716634,490.0,425.0
2778,1685095716634,465.0,413.0
2779,1685095716666,500.0,456.0
2780,1685095716666,377.0,370.0
2781,1685095716666,500.0,446.0
2782,1685095716666,455.0,433.0
2783,1685095716700,347.0,389.0
2784,1685095716700,404.0,403.0
2785,1685095716700,381.0,433.0
2786,1685095716731,417.0,448.0
2787,1685095716731,334.0,417.0
2788,1685095716731,484.0,462.0
2789,1685095716731,428.0,475.0
2790,1685095716763,491.0,435.0
2791,1685095716763,445.0,474.0
2792,1685095716763,494.0,422.0
2793,1685095716794,470.0,441.0
2794,1685095716794,451.0,402.0
2795,1685095716794,408.0,391.0
2796,1685095716794,520.0,465.0
2797,1685095716825,398.0,407.0
2798,1685095716825,376.0,409.0
2799,1685095716825,459.0,420.0
2800,1685095716858,383.0,440.0
2801,1685095716858,384.0,414.0
2802,1685095716858,358.0,421.0
2803,1685095716858,491.0,468.0
2804,1685095716889,399.0,474.0
2805,1685095716889,477.0,432.0
2806,1685095716889,434.0,470.0
2807,1685095716889,493.0,427.0
2808,1685095716934,451.0,459.0
2809,1685095716934,475.0,424.0
2810,1685095716934,445.0,410.0
2811,1685095716965,503.0,463.0
2812,1685095716965,377.0,385.0
2813,1685095716965,453.0,418.0
2814,1685095716965,485.0,438.0
2815,1685095717001,365.0,417.0
2816,1685095717001,404.0,414.0
2817,1685095717001,388.0,423.0
2818,1685095717033,445.0,466.0
2819,1685095717033,350.0,439.0
2820,1685095717033,489.0,459.0
2821,1685095717033,421.0,462.0
2822,1685095717066,482.0,431.0
2823,1685095717066,444.0,473.0
2824,1685095717066,486.0,422.0
2825,1685095717100,462.0,436.0
2826,1685095717100,472.0,442.0
2827,1685095717100,392.0,391.0
2828,1685095717100,521.0,458.0
2829,1685095717126,429.0,431.0
2830,1685095717126,356.0,401.0
2831,1685095717126,432.0,420.0
2832,1685095717158,384.0,425.0
2833,1685095717158,395.0,429.0
2834,1685095717158,341.0,416.0
2835,1685095717158,480.0,457.0
2836,1685095717189,406.0,480.0
2837,1685095717189,473.0,437.0
2838,1685095717189,441.0,475.0
2839,1685095717189,501.0,429.0
2840,1685095717236,458.0,458.0
2841,1685095717236,476.0,435.0
2842,1685095717236,441.0,398.0
2843,1685095717258,517.0,473.0
2844,1685095717258,383.0,396.0
2845,1685095717258,423.0,412.0
2846,1685095717258,482.0,440.0
2847,1685095717302,370.0,424.0
2848,1685095717302,374.0,395.0
2849,1685095717302,365.0,428.0
2850,1685095717333,463.0,453.0
2851,1685095717333,371.0,452.0
2852,1685095717333,497.0,446.0
2853,1685095717333,433.0,483.0
2854,1685095717364,501.0,427.0
2855,1685095717364,454.0,474.0
2856,1685095717364,485.0,422.0
2857,1685095717400,472.0,427.0
2858,1685095717400,493.0,450.0
2859,1685095717400,371.0,380.0
2860,1685095717400,490.0,440.0
2861,1685095717430,445.0,433.0
2862,1685095717430,353.0,397.0
2863,1685095717430,400.0,394.0
2864,1685095717468,397.0,437.0
2865,1685095717468,436.0,446.0
2866,1685095717468,349.0,428.0
2867,1685095717468,500.0,469.0
2868,1685095717491,412.0,473.0
2869,1685095717491,472.0,410.0
2870,1685095717491,444.0,473.0
2871,1685095717491,493.0,415.0
2872,1685095717535,464.0,446.0
2873,1685095717535,472.0,432.0
2874,1685095717535,412.0,388.0
2875,1685095717566,527.0,472.0
2876,1685095717566,403.0,411.0
2877,1685095717566,396.0,399.0
2878,1685095717566,470.0,420.0
2879,1685095717602,385.0,433.0
2880,1685095717602,384.0,419.0
2881,1685095717602,351.0,417.0
2882,1685095717633,479.0,458.0
2883,1685095717633,383.0,465.0
2884,1685095717633,485.0,433.0
2885,1685095717633,429.0,472.0
2886,1685095717664,489.0,415.0
2887,1685095717664,452.0,462.0
2888,1685095717664,480.0,423.0
2889,1685095717696,454.0,413.0
2890,1685095717696,512.0,464.0
2891,1685095717696,386.0,384.0
2892,1685095717696,477.0,438.0
2893,1685095717727,476.0,444.0
2894,1685095717727,360.0,419.0
2895,1685095717727,391.0,408.0
2896,1685095717759,380.0,430.0
2897,1685095717759,443.0,454.0
2898,1685095717759,338.0,436.0
2899,1685095717759,483.0,458.0
2900,1685095717790,420.0,485.0
2901,1685095717790,484.0,421.0
2902,1685095717790,457.0,482.0
2903,1685095717790,495.0,418.0
2904,1685095717835,478.0,443.0
2905,1685095717835,486.0,434.0
2906,1685095717835,397.0,378.0
2907,1685095717866,518.0,462.0
2908,1685095717866,400.0,401.0
2909,1685095717866,354.0,397.0
2910,1685095717866,447.0,415.0
2911,1685095717903,383.0,432.0
2912,1685095717903,389.0,429.0
2913,1685095717903,334.0,422.0
2914,1685095717934,489.0,465.0
2915,1685095717934,405.0,480.0
2916,1685095717934,490.0,432.0
2917,1685095717934,445.0,480.0
2918,1685095717966,497.0,426.0
2919,1685095717966,465.0,459.0
2920,1685095717966,474.0,422.0
2921,1685095717997,440.0,404.0
2922,1685095717997,509.0,456.0
2923,1685095717997,372.0,381.0
2924,1685095717997,442.0,429.0
2925,1685095718029,485.0,445.0
2926,1685095718029,373.0,415.0
2927,1685095718029,391.0,413.0
2928,1685095718060,370.0,424.0
2929,1685095718060,475.0,459.0
2930,1685095718060,361.0,452.0
2931,1685095718060,501.0,444.0
2932,1685095718091,433.0,483.0
2933,1685095718091,477.0,418.0
2934,1685095718091,445.0,463.0
2935,1685095718091,487.0,423.0
2936,1685095718136,461.0,426.0
2937,1685095718136,483.0,449.0
2938,1685095718136,388.0,369.0
2939,1685095718168,503.0,450.0
2940,1685095718168,441.0,424.0
2941,1685095718168,357.0,417.0
2942,1685095718168,419.0,410.0
2943,1685095718203,392.0,440.0
2944,1685095718203,424.0,449.0
2945,1685095718203,342.0,417.0
2946,1685095718236,492.0,472.0
2947,1685095718236,406.0,471.0
2948,1685095718236,476.0,423.0
2949,1685095718236,437.0,473.0
2950,1685095718267,494.0,425.0
2951,1685095718267,465.0,447.0
2952,1685095718267,480.0,426.0
2953,1685095718300,432.0,395.0
2954,1685095718300,534.0,475.0
2955,1685095718300,398.0,414.0
2956,1685095718300,401.0,410.0
2957,1685095718330,470.0,433.0
2958,1685095718330,375.0,417.0
2959,1685095718330,374.0,414.0
2960,1685095718361,346.0,422.0
2961,1685095718361,475.0,472.0
2962,1685095718361,374.0,448.0
2963,1685095718361,485.0,442.0
2964,1685095718393,436.0,483.0
2965,1685095718393,506.0,419.0
2966,1685095718393,462.0,466.0
2967,1685095718393,490.0,421.0
2968,1685095718437,456.0,422.0
2969,1685095718437,500.0,448.0
2970,1685095718437,377.0,380.0
2971,1685095718468,470.0,442.0
2972,1685095718468,461.0,443.0
2973,1685095718468,350.0,401.0
2974,1685095718468,398.0,399.0
2975,1685095718504,378.0,426.0
2976,1685095718504,426.0,451.0
2977,1685095718504,346.0,430.0
2978,1685095718535,499.0,462.0
2979,1685095718535,428.0,479.0
2980,1685095718535,487.0,430.0
2981,1685095718535,450.0,473.0
2982,1685095718570,493.0,413.0
2983,1685095718570,471.0,457.0
2984,1685095718570,477.0,423.0
2985,1685095718598,398.0,386.0
2986,1685095718598,514.0,465.0
2987,1685095718598,401.0,410.0
2988,1685095718598,369.0,405.0
2989,1685095718630,457.0,426.0
2990,1685095718630,380.0,427.0
2991,1685095718630,393.0,426.0
2992,1685095718661,358.0,438.0
2993,1685095718661,487.0,463.0
2994,1685095718661,398.0,481.0
2995,1685095718661,474.0,430.0
2996,1685095718694,429.0,474.0
2997,1685095718694,491.0,416.0
2998,1685095718694,449.0,453.0
2999,1685095718694,473.0,417.0
3000,1685095718737,446.0,406.0
3001,1685095718737,512.0,460.0
3002,1685095718737,380.0,388.0
3003,1685095718770,464.0,428.0
3004,1685095718770,495.0,449.0
3005,1685095718770,364.0,415.0
3006,1685095718770,399.0,413.0
3007,1685095718804,374.0,420.0
3008,1685095718804,439.0,452.0
3009,1685095718804,360.0,451.0
3010,1685095718836,486.0,454.0
3011,1685095718836,414.0,464.0
3012,1685095718836,484.0,431.0
3013,1685095718836,439.0,450.0
3014,1685095718868,496.0,428.0
3015,1685095718868,472.0,430.0
3016,1685095718868,486.0,451.0
3017,1685095718899,398.0,381.0
3018,1685095718899,519.0,448.0
3019,1685095718899,422.0,426.0
3020,1685095718899,353.0,385.0
3021,1685095718930,419.0,408.0
3022,1685095718930,386.0,417.0
3023,1685095718930,396.0,436.0
3024,1685095718961,329.0,420.0
3025,1685095718961,487.0,472.0
3026,1685095718961,397.0,457.0
3027,1685095718961,493.0,436.0
3028,1685095718993,459.0,482.0
3029,1685095718993,503.0,430.0
3030,1685095718993,476.0,468.0
3031,1685095718993,479.0,425.0
3032,1685095719038,443.0,384.0
3033,1685095719038,509.0,463.0
3034,1685095719038,369.0,397.0
3035,1685095719070,411.0,422.0
3036,1685095719070,484.0,440.0
3037,1685095719070,363.0,429.0
3038,1685095719070,371.0,414.0
3039,1685095719105,361.0,427.0
3040,1685095719105,476.0,461.0
3041,1685095719105,379.0,467.0
3042,1685095719136,507.0,461.0
3043,1685095719136,431.0,467.0
3044,1685095719136,491.0,434.0
3045,1685095719136,446.0,465.0
3046,1685095719168,485.0,416.0
3047,1685095719168,459.0,419.0
3048,1685095719168,489.0,447.0
3049,1685095719203,369.0,374.0
3050,1685095719203,486.0,433.0
3051,1685095719203,461.0,428.0
3052,1685095719203,354.0,408.0
3053,1685095719230,411.0,397.0
3054,1685095719230,392.0,436.0
3055,1685095719230,435.0,461.0
3056,1685095719262,345.0,431.0
3057,1685095719262,488.0,465.0
3058,1685095719262,407.0,481.0
3059,1685095719262,479.0,423.0
3060,1685095719293,433.0,469.0
3061,1685095719293,487.0,424.0
3062,1685095719293,462.0,446.0
3063,1685095719293,472.0,433.0
3064,1685095719339,408.0,381.0
3065,1685095719339,530.0,469.0
3066,1685095719339,404.0,409.0
3067,1685095719370,387.0,413.0
3068,1685095719370,478.0,421.0
3069,1685095719370,385.0,430.0
3070,1685095719370,386.0,418.0
3071,1685095719406,350.0,414.0
3072,1685095719406,474.0,458.0
3073,1685095719406,379.0,458.0
3074,1685095719439,473.0,441.0
3075,1685095719439,429.0,467.0
3076,1685095719439,489.0,422.0
3077,1685095719439,466.0,468.0
3078,1685095719470,489.0,418.0
3079,1685095719470,449.0,409.0
3080,1685095719470,517.0,475.0
3081,1685095719501,378.0,373.0
3082,1685095719501,467.0,442.0
3083,1685095719501,472.0,435.0
3084,1685095719501,345.0,397.0
3085,1685095719532,392.0,409.0
3086,1685095719532,364.0,425.0
3087,1685095719532,440.0,459.0
3088,1685095719564,339.0,431.0
3089,1685095719564,484.0,459.0
3090,1685095719564,433.0,495.0
3091,1685095719564,493.0,432.0
3092,1685095719596,465.0,464.0
3093,1685095719596,500.0,425.0
3094,1685095719596,475.0,440.0
3095,1685095719596,473.0,439.0
3096,1685095719640,389.0,371.0
3097,1685095719640,513.0,462.0
3098,1685095719640,406.0,401.0
3099,1685095719671,352.0,415.0
3100,1685095719671,448.0,421.0
3101,1685095719671,392.0,438.0
3102,1685095719671,393.0,426.0
3103,1685095719706,343.0,432.0
3104,1685095719706,503.0,467.0
3105,1685095719706,399.0,475.0
3106,1685095719739,486.0,424.0
3107,1685095719739,440.0,473.0
3108,1685095719739,498.0,421.0
3109,1685095719739,460.0,452.0
3110,1685095719771,459.0,413.0
3111,1685095719771,449.0,404.0
3112,1685095719771,516.0,478.0
3113,1685095719800,378.0,380.0
3114,1685095719800,444.0,423.0
3115,1685095719800,493.0,440.0
3116,1685095719800,367.0,414.0
3117,1685095719831,399.0,411.0
3118,1685095719831,371.0,426.0
3119,1685095719831,471.0,466.0
3120,1685095719865,354.0,435.0
3121,1685095719865,480.0,451.0
3122,1685095719865,435.0,477.0
3123,1685095719865,479.0,420.0
3124,1685095719895,449.0,453.0
3125,1685095719895,488.0,421.0
3126,1685095719895,469.0,437.0
3127,1685095719895,484.0,445.0
3128,1685095719940,382.0,376.0
3129,1685095719940,488.0,426.0
3130,1685095719940,433.0,444.0
3131,1685095719971,351.0,398.0
3132,1685095719971,414.0,407.0
3133,1685095719971,390.0,436.0
3134,1685095719971,414.0,436.0
3135,1685095720008,348.0,435.0
3136,1685095720008,493.0,466.0
3137,1685095720008,405.0,469.0
3138,1685095720039,486.0,431.0
3139,1685095720039,438.0,472.0
3140,1685095720039,501.0,423.0
3141,1685095720039,465.0,442.0
3142,1685095720070,474.0,429.0
3143,1685095720070,428.0,397.0
3144,1685095720070,533.0,473.0
3145,1685095720106,398.0,412.0
3146,1685095720106,400.0,400.0
3147,1685095720106,483.0,438.0
3148,1685095720106,373.0,428.0
3149,1685095720139,380.0,407.0
3150,1685095720139,347.0,398.0
3151,1685095720139,462.0,467.0
3152,1685095720166,375.0,465.0
3153,1685095720166,486.0,433.0
3154,1685095720166,441.0,496.0
3155,1685095720166,496.0,425.0
3156,1685095720201,449.0,458.0
3157,1685095720201,480.0,427.0
3158,1685095720201,457.0,412.0
3159,1685095720201,493.0,451.0
3160,1685095720240,378.0,376.0
3161,1685095720240,484.0,439.0
3162,1685095720240,459.0,435.0
3163,1685095720272,353.0,403.0
3164,1685095720272,409.0,410.0
3165,1685095720272,376.0,434.0
3166,1685095720272,428.0,451.0
3167,1685095720308,353.0,432.0
3168,1685095720308,496.0,461.0
3169,1685095720308,411.0,476.0
3170,1685095720339,486.0,426.0
3171,1685095720339,445.0,461.0
3172,1685095720339,493.0,420.0
3173,1685095720339,470.0,437.0
3174,1685095720371,477.0,435.0
3175,1685095720371,399.0,380.0
3176,1685095720371,510.0,462.0
3177,1685095720403,395.0,405.0
3178,1685095720403,364.0,385.0
3179,1685095720403,461.0,428.0
3180,1685095720403,381.0,425.0
3181,1685095720434,400.0,420.0
3182,1685095720434,344.0,414.0
3183,1685095720434,494.0,468.0
3184,1685095720466,397.0,464.0
3185,1685095720466,476.0,425.0
3186,1685095720466,434.0,487.0
3187,1685095720466,497.0,420.0
3188,1685095720505,454.0,465.0
3189,1685095720505,474.0,416.0
3190,1685095720505,448.0,419.0
3191,1685095720505,511.0,462.0
3192,1685095720541,371.0,377.0
3193,1685095720541,466.0,439.0
3194,1685095720541,488.0,449.0
3195,1685095720573,359.0,404.0
3196,1685095720573,397.0,424.0
3197,1685095720573,377.0,419.0
3198,1685095720574,449.0,452.0
3199,1685095720608,354.0,446.0
3200,1685095720608,481.0,444.0
3201,1685095720608,426.0,482.0
3202,1685095720640,481.0,409.0
3203,1685095720640,443.0,471.0
3204,1685095720640,489.0,417.0
3205,1685095720640,473.0,450.0
3206,1685095720674,472.0,434.0
3207,1685095720674,400.0,369.0
3208,1685095720674,525.0,468.0
3209,1685095720702,422.0,423.0
3210,1685095720702,353.0,399.0
3211,1685095720702,451.0,415.0
3212,1685095720702,387.0,436.0
3213,1685095720735,387.0,425.0
3214,1685095720735,323.0,421.0
3215,1685095720735,484.0,465.0
3216,1685095720765,403.0,476.0
3217,1685095720765,481.0,428.0
3218,1685095720765,440.0,472.0
3219,1685095720765,499.0,427.0
3220,1685095720800,476.0,458.0
3221,1685095720800,476.0,421.0
3222,1685095720800,448.0,404.0
3223,1685095720800,523.0,475.0
3224,1685095720842,379.0,383.0
3225,1685095720842,425.0,422.0
3226,1685095720842,477.0,437.0
3227,1685095720873,359.0,413.0
3228,1685095720873,378.0,417.0
3229,1685095720873,364.0,419.0
3230,1685095720873,470.0,470.0
3231,1685095720908,370.0,453.0
3232,1685095720908,499.0,458.0
3233,1685095720908,439.0,489.0
3234,1685095720940,495.0,426.0
3235,1685095720940,451.0,460.0
3236,1685095720940,489.0,431.0
3237,1685095720940,466.0,419.0
3238,1685095720972,480.0,453.0
3239,1685095720972,372.0,369.0
3240,1685095720972,495.0,449.0
3241,1685095721005,439.0,429.0
3242,1685095721005,348.0,402.0
3243,1685095721005,417.0,418.0
3244,1685095721005,392.0,441.0
3245,1685095721036,430.0,448.0
3246,1685095721036,343.0,426.0
3247,1685095721036,498.0,463.0
3248,1685095721066,418.0,478.0
3249,1685095721066,476.0,439.0
3250,1685095721066,435.0,459.0
3251,1685095721066,483.0,425.0
3252,1685095721102,459.0,450.0
3253,1685095721102,465.0,426.0
3254,1685095721102,413.0,392.0
3255,1685095721102,527.0,467.0
3256,1685095721142,394.0,405.0
3257,1685095721142,393.0,397.0
3258,1685095721142,476.0,435.0
3259,1685095721174,375.0,438.0
3260,1685095721174,384.0,416.0
3261,1685095721174,346.0,418.0
3262,1685095721174,480.0,467.0
3263,1685095721209,375.0,454.0
3264,1685095721209,479.0,438.0
3265,1685095721209,421.0,470.0
3266,1685095721240,491.0,426.0
3267,1685095721240,456.0,460.0
3268,1685095721240,482.0,418.0
3269,1685095721240,463.0,422.0
3270,1685095721272,501.0,450.0
3271,1685095721272,372.0,387.0
3272,1685095721272,484.0,436.0
3273,1685095721303,468.0,439.0
3274,1685095721303,347.0,408.0
3275,1685095721303,401.0,408.0
3276,1685095721303,375.0,427.0
3277,1685095721335,426.0,451.0
3278,1685095721335,340.0,425.0
3279,1685095721335,490.0,462.0
3280,1685095721366,429.0,488.0
3281,1685095721366,497.0,436.0
3282,1685095721366,453.0,469.0
3283,1685095721366,504.0,413.0
3284,1685095721398,481.0,445.0
3285,1685095721398,480.0,445.0
3286,1685095721398,403.0,370.0
3287,1685095721398,519.0,464.0
3288,1685095721443,401.0,415.0
3289,1685095721443,360.0,392.0
3290,1685095721443,453.0,420.0
3291,1685095721475,382.0,430.0
3292,1685095721475,394.0,428.0
3293,1685095721475,348.0,421.0
3294,1685095721475,497.0,477.0
3295,1685095721510,392.0,470.0
3296,1685095721510,493.0,448.0
3297,1685095721510,439.0,475.0
3298,1685095721543,495.0,432.0
3299,1685095721543,458.0,449.0
3300,1685095721543,469.0,420.0
3301,1685095721543,450.0,407.0
3302,1685095721573,511.0,461.0
3303,1685095721573,368.0,392.0
3304,1685095721573,452.0,435.0
3305,1685095721606,487.0,448.0
3306,1685095721606,357.0,417.0
3307,1685095721606,398.0,422.0
3308,1685095721606,368.0,414.0
3309,1685095721636,463.0,465.0
3310,1685095721636,363.0,455.0
3311,1685095721636,490.0,443.0
3312,1685095721667,427.0,491.0
3313,1685095721667,478.0,428.0
3314,1685095721667,449.0,468.0
3315,1685095721667,489.0,427.0
3316,1685095721699,466.0,433.0
3317,1685095721699,481.0,445.0
3318,1685095721699,391.0,373.0
3319,1685095721699,514.0,464.0
3320,1685095721744,441.0,435.0
3321,1685095721744,344.0,399.0
3322,1685095721744,434.0,413.0
3323,1685095721776,392.0,440.0
3324,1685095721776,409.0,442.0
3325,1685095721776,343.0,426.0
3326,1685095721776,486.0,457.0
3327,1685095721810,401.0,488.0
3328,1685095721810,480.0,425.0
3329,1685095721810,444.0,488.0
3330,1685095721842,497.0,428.0
3331,1685095721842,476.0,454.0
3332,1685095721842,476.0,427.0
3333,1685095721842,440.0,384.0
3334,1685095721873,509.0,474.0
3335,1685095721873,385.0,363.0
3336,1685095721873,421.0,416.0
3337,1685095721905,492.0,458.0
3338,1685095721905,424.0,509.0
3339,1685095721905,311.0,353.0
3340,1685095721905,453.0,377.0
3341,1685095721936,512.0,434.0
3342,1685095721936,515.0,390.0
3343,1685095721936,381.0,589.0
3344,1685095721967,410.0,425.0
3345,1685095721967,537.0,494.0
3346,1685095721967,315.0,438.0
3347,1685095721967,542.0,513.0
3348,1685095721999,470.0,461.0
3349,1685095721999,648.0,410.0
3350,1685095721999,379.0,374.0
3351,1685095721999,505.0,459.0
3352,1685095722044,467.0,439.0
3353,1685095722044,350.0,367.0
3354,1685095722044,386.0,391.0
3355,1685095722076,420.0,444.0
3356,1685095722076,456.0,472.0
3357,1685095722076,370.0,437.0
3358,1685095722076,463.0,442.0
3359,1685095722111,386.0,488.0
3360,1685095722111,481.0,458.0
3361,1685095722111,407.0,456.0
3362,1685095722142,370.0,412.0
3363,1685095722142,428.0,433.0
3364,1685095722142,435.0,434.0
3365,1685095722142,397.0,393.0
3366,1685095722173,512.0,479.0
3367,1685095722173,379.0,392.0
3368,1685095722173,375.0,401.0
3369,1685095722210,471.0,431.0
3370,1685095722210,326.0,432.0
3371,1685095722210,401.0,417.0
3372,1685095722210,427.0,417.0
3373,1685095722237,519.0,471.0
3374,1685095722237,394.0,444.0
3375,1685095722237,482.0,466.0
3376,1685095722268,436.0,450.0
3377,1685095722268,501.0,438.0
3378,1685095722268,409.0,432.0
3379,1685095722268,456.0,422.0
3380,1685095722302,469.0,441.0
3381,1685095722302,608.0,425.0
3382,1685095722302,385.0,408.0
3383,1685095722302,490.0,430.0
3384,1685095722346,507.0,436.0
3385,1685095722346,357.0,411.0
3386,1685095722346,393.0,416.0
3387,1685095722377,387.0,439.0
3388,1685095722377,444.0,458.0
3389,1685095722377,326.0,395.0
3390,1685095722377,513.0,489.0
3391,1685095722412,463.0,441.0
3392,1685095722412,502.0,437.0
3393,1685095722412,448.0,480.0
3394,1685095722444,547.0,438.0
3395,1685095722444,434.0,443.0
3396,1685095722444,465.0,444.0
3397,1685095722444,394.0,385.0
3398,1685095722475,528.0,481.0
3399,1685095722475,412.0,398.0
3400,1685095722475,408.0,392.0
3401,1685095722508,453.0,447.0
3402,1685095722508,378.0,405.0
3403,1685095722508,363.0,437.0
3404,1685095722508,385.0,423.0
3405,1685095722538,490.0,460.0
3406,1685095722538,392.0,458.0
3407,1685095722538,471.0,471.0
3408,1685095722570,440.0,463.0
3409,1685095722570,497.0,423.0
3410,1685095722570,488.0,449.0
3411,1685095722570,477.0,414.0
3412,1685095722602,429.0,411.0
3413,1685095722602,547.0,511.0
3414,1685095722602,409.0,368.0
3415,1685095722602,447.0,423.0
3416,1685095722646,513.0,437.0
3417,1685095722646,368.0,422.0
3418,1685095722646,551.0,422.0
3419,1685095722677,448.0,423.0
3420,1685095722677,477.0,449.0
3421,1685095722677,374.0,455.0
3422,1685095722677,495.0,446.0
3423,1685095722713,424.0,484.0
3424,1685095722713,496.0,433.0
3425,1685095722713,448.0,440.0
3426,1685095722744,500.0,428.0
3427,1685095722744,450.0,465.0
3428,1685095722744,474.0,421.0
3429,1685095722744,385.0,362.0
3430,1685095722775,569.0,463.0
3431,1685095722775,433.0,424.0
3432,1685095722775,360.0,394.0
3433,1685095722807,449.0,423.0
3434,1685095722807,407.0,414.0
3435,1685095722807,404.0,426.0
3436,1685095722807,323.0,465.0
3437,1685095722846,494.0,451.0
3438,1685095722846,402.0,478.0
3439,1685095722846,471.0,417.0
3440,1685095722870,417.0,505.0
3441,1685095722870,475.0,416.0
3442,1685095722870,432.0,429.0
3443,1685095722870,477.0,425.0
3444,1685095722903,443.0,399.0
3445,1685095722903,516.0,467.0
3446,1685095722903,416.0,420.0
3447,1685095722903,377.0,402.0
3448,1685095722946,486.0,447.0
3449,1685095722946,386.0,422.0
3450,1685095722946,404.0,410.0
3451,1685095722977,335.0,396.0
3452,1685095722977,441.0,476.0
3453,1685095722977,375.0,456.0
3454,1685095722977,501.0,442.0
3455,1685095723013,435.0,477.0
3456,1685095723013,465.0,419.0
3457,1685095723013,434.0,474.0
3458,1685095723044,484.0,411.0
3459,1685095723044,483.0,438.0
3460,1685095723044,480.0,448.0
3461,1685095723044,372.0,389.0
3462,1685095723076,491.0,437.0
3463,1685095723076,446.0,426.0
3464,1685095723076,358.0,419.0
3465,1685095723107,406.0,393.0
3466,1685095723107,386.0,432.0
3467,1685095723107,407.0,439.0
3468,1685095723107,300.0,444.0
3469,1685095723139,494.0,451.0
3470,1685095723139,427.0,479.0
3471,1685095723139,493.0,429.0
3472,1685095723170,436.0,472.0
3473,1685095723170,509.0,416.0
3474,1685095723170,442.0,464.0
3475,1685095723170,483.0,421.0
3476,1685095723209,397.0,393.0
3477,1685095723209,522.0,454.0
3478,1685095723209,387.0,405.0
3479,1685095723209,393.0,384.0
3480,1685095723247,457.0,430.0
3481,1685095723247,386.0,422.0
3482,1685095723247,381.0,419.0
3483,1685095723279,352.0,416.0
3484,1685095723279,477.0,467.0
3485,1685095723279,391.0,482.0
3486,1685095723279,477.0,432.0
3487,1685095723314,452.0,483.0
3488,1685095723314,491.0,429.0
3489,1685095723314,468.0,458.0
3490,1685095723345,513.0,417.0
3491,1685095723345,442.0,416.0
3492,1685095723345,498.0,460.0
3493,1685095723345,368.0,373.0
3494,1685095723377,491.0,443.0
3495,1685095723377,459.0,454.0
3496,1685095723377,357.0,408.0
3497,1685095723408,409.0,423.0
3498,1685095723408,390.0,437.0
3499,1685095723408,443.0,455.0
3500,1685095723408,359.0,442.0
3501,1685095723440,475.0,447.0
3502,1685095723440,417.0,479.0
3503,1685095723440,486.0,426.0
3504,1685095723472,440.0,468.0
3505,1685095723472,490.0,432.0
3506,1685095723472,465.0,439.0
3507,1685095723472,480.0,436.0
3508,1685095723503,418.0,392.0
3509,1685095723503,534.0,439.0
3510,1685095723503,415.0,435.0
3511,1685095723503,365.0,403.0
3512,1685095723547,463.0,417.0
3513,1685095723547,393.0,441.0
3514,1685095723547,383.0,412.0
3515,1685095723580,344.0,427.0
3516,1685095723580,481.0,459.0
3517,1685095723580,400.0,471.0
3518,1685095723580,477.0,436.0
3519,1685095723615,428.0,478.0
3520,1685095723615,497.0,430.0
3521,1685095723615,459.0,465.0
3522,1685095723646,486.0,421.0
3523,1685095723646,450.0,410.0
3524,1685095723646,505.0,463.0
3525,1685095723646,386.0,395.0
3526,1685095723677,465.0,428.0
3527,1685095723677,485.0,444.0
3528,1685095723677,355.0,402.0
3529,1685095723709,381.0,407.0
3530,1685095723709,377.0,430.0
3531,1685095723709,441.0,453.0
3532,1685095723709,355.0,459.0
3533,1685095723742,485.0,442.0
3534,1685095723742,426.0,472.0
3535,1685095723742,493.0,435.0
3536,1685095723772,457.0,468.0
3537,1685095723772,491.0,426.0
3538,1685095723772,474.0,434.0
3539,1685095723772,481.0,449.0
3540,1685095723804,387.0,375.0
3541,1685095723804,511.0,454.0
3542,1685095723804,411.0,416.0
3543,1685095723804,349.0,401.0
3544,1685095723848,427.0,419.0
3545,1685095723848,391.0,435.0
3546,1685095723848,404.0,439.0
3547,1685095723879,346.0,424.0
3548,1685095723879,493.0,464.0
3549,1685095723879,408.0,482.0
3550,1685095723879,485.0,420.0
3551,1685095723915,444.0,475.0
3552,1685095723915,499.0,424.0
3553,1685095723915,455.0,447.0
3554,1685095723946,470.0,427.0
3555,1685095723946,440.0,397.0
3556,1685095723946,514.0,464.0
3557,1685095723946,377.0,390.0
3558,1685095723977,427.0,418.0
3559,1685095723977,490.0,443.0
3560,1685095723977,370.0,426.0
3561,1685095724009,395.0,409.0
3562,1685095724009,366.0,430.0
3563,1685095724009,470.0,465.0
3564,1685095724009,364.0,448.0
3565,1685095724040,487.0,448.0
3566,1685095724040,430.0,480.0
3567,1685095724040,486.0,419.0
3568,1685095724072,448.0,466.0
3569,1685095724072,480.0,424.0
3570,1685095724072,468.0,421.0
3571,1685095724072,485.0,444.0
3572,1685095724103,395.0,376.0
3573,1685095724103,506.0,450.0
3574,1685095724103,404.0,431.0
3575,1685095724103,311.0,417.0
3576,1685095724151,419.0,396.0
3577,1685095724151,503.0,485.0
3578,1685095724151,495.0,393.0
3579,1685095724181,346.0,497.0
3580,1685095724182,530.0,483.0
3581,1685095724182,435.0,378.0
3582,1685095724182,422.0,559.0
3583,1685095724215,467.0,440.0
3584,1685095724215,486.0,352.0
3585,1685095724215,497.0,479.0
3586,1685095724247,598.0,466.0
3587,1685095724247,457.0,363.0
3588,1685095724247,430.0,488.0
3589,1685095724247,359.0,384.0
3590,1685095724279,416.0,481.0
3591,1685095724279,478.0,378.0
3592,1685095724279,489.0,447.0
3593,1685095724310,286.0,444.0
3594,1685095724310,362.0,424.0
3595,1685095724310,447.0,466.0
3596,1685095724310,397.0,501.0
3597,1685095724342,523.0,424.0
3598,1685095724342,440.0,473.0
3599,1685095724342,520.0,442.0
3600,1685095724374,452.0,458.0
3601,1685095724374,439.0,527.0
3602,1685095724374,481.0,346.0
3603,1685095724374,425.0,500.0
3604,1685095724404,373.0,369.0
3605,1685095724404,485.0,449.0
3606,1685095724404,484.0,471.0
3607,1685095724404,355.0,378.0
3608,1685095724451,358.0,409.0
3609,1685095724451,369.0,424.0
3610,1685095724451,402.0,414.0
3611,1685095724482,278.0,495.0
3612,1685095724482,480.0,437.0
3613,1685095724482,450.0,491.0
3614,1685095724482,463.0,431.0
3615,1685095724519,453.0,507.0
3616,1685095724519,538.0,397.0
3617,1685095724519,517.0,423.0
3618,1685095724535,462.0,410.0
3619,1685095724535,331.0,391.0
3620,1685095724535,547.0,437.0
3621,1685095724535,378.0,437.0
3622,1685095724581,340.0,378.0
3623,1685095724581,512.0,471.0
3624,1685095724581,495.0,432.0
3625,1685095724613,378.0,407.0
3626,1685095724613,342.0,448.0
3627,1685095724613,432.0,422.0
3628,1685095724613,375.0,497.0
3629,1685095724645,487.0,440.0
3630,1685095724645,437.0,474.0
3631,1685095724645,476.0,402.0
3632,1685095724676,465.0,462.0
3633,1685095724676,483.0,425.0
3634,1685095724676,459.0,427.0
3635,1685095724676,521.0,457.0
3636,1685095724708,382.0,358.0
3637,1685095724708,456.0,426.0
3638,1685095724708,487.0,455.0
3639,1685095724708,346.0,409.0
3640,1685095724750,382.0,414.0
3641,1685095724750,386.0,418.0
3642,1685095724750,421.0,459.0
3643,1685095724782,346.0,446.0
3644,1685095724782,484.0,443.0
3645,1685095724782,418.0,488.0
3646,1685095724782,481.0,440.0
3647,1685095724817,445.0,447.0
3648,1685095724817,502.0,415.0
3649,1685095724817,476.0,422.0
3650,1685095724848,484.0,449.0
3651,1685095724848,405.0,374.0
3652,1685095724848,518.0,465.0
3653,1685095724848,406.0,415.0
3654,1685095724880,355.0,390.0
3655,1685095724880,441.0,420.0
3656,1685095724880,379.0,433.0
3657,1685095724915,386.0,433.0
3658,1685095724915,343.0,413.0
3659,1685095724915,476.0,458.0
3660,1685095724915,406.0,493.0
3661,1685095724943,484.0,415.0
3662,1685095724943,441.0,459.0
3663,1685095724943,508.0,440.0
3664,1685095724974,466.0,450.0
3665,1685095724974,474.0,428.0
3666,1685095724974,447.0,415.0
3667,1685095724974,512.0,452.0
3668,1685095725006,370.0,386.0
3669,1685095725006,444.0,420.0
3670,1685095725006,485.0,445.0
3671,1685095725006,371.0,418.0
3672,1685095725051,381.0,404.0
3673,1685095725051,380.0,427.0
3674,1685095725051,461.0,466.0
3675,1685095725082,366.0,450.0
3676,1685095725082,501.0,458.0
3677,1685095725082,425.0,478.0
3678,1685095725082,489.0,429.0
3679,1685095725117,437.0,456.0
3680,1685095725117,486.0,425.0
3681,1685095725117,461.0,427.0
3682,1685095725149,476.0,447.0
3683,1685095725149,376.0,378.0
3684,1685095725149,509.0,454.0
3685,1685095725149,433.0,421.0
3686,1685095725180,357.0,406.0
3687,1685095725180,433.0,422.0
3688,1685095725180,402.0,441.0
3689,1685095725212,410.0,428.0
3690,1685095725212,337.0,443.0
3691,1685095725212,489.0,460.0
3692,1685095725212,405.0,479.0
3693,1685095725244,473.0,426.0
3694,1685095725244,428.0,470.0
3695,1685095725244,489.0,427.0
3696,1685095725276,455.0,447.0
3697,1685095725276,481.0,432.0
3698,1685095725276,442.0,395.0
3699,1685095725276,530.0,473.0
3700,1685095725307,395.0,391.0
3701,1685095725307,423.0,419.0
3702,1685095725307,481.0,447.0
3703,1685095725307,367.0,416.0
3704,1685095725352,374.0,408.0
3705,1685095725352,355.0,426.0
3706,1685095725352,464.0,462.0
3707,1685095725383,362.0,454.0
3708,1685095725383,485.0,445.0
3709,1685095725383,429.0,482.0
3710,1685095725383,493.0,422.0
3711,1685095725418,460.0,475.0
3712,1685095725418,497.0,425.0
3713,1685095725418,464.0,415.0
3714,1685095725450,496.0,449.0
3715,1685095725450,388.0,381.0
3716,1685095725450,493.0,447.0
3717,1685095725450,446.0,427.0
3718,1685095725481,342.0,420.0
3719,1685095725481,403.0,404.0
3720,1685095725481,377.0,437.0
3721,1685095725515,392.0,444.0
3722,1685095725515,343.0,431.0
3723,1685095725515,492.0,464.0
3724,1685095725515,420.0,487.0
3725,1685095725546,496.0,427.0
3726,1685095725546,458.0,482.0
3727,1685095725546,503.0,409.0
3728,1685095725577,471.0,448.0
3729,1685095725577,471.0,431.0
3730,1685095725577,409.0,389.0
3731,1685095725577,516.0,473.0
3732,1685095725608,391.0,394.0
3733,1685095725608,377.0,411.0
3734,1685095725608,470.0,429.0
3735,1685095725608,372.0,433.0
3736,1685095725652,345.0,405.0
3737,1685095725652,444.0,400.0
3738,1685095725652,130.0,393.0
3739,1685095725684,216.0,493.0
3740,1685095725684,439.0,488.0
3741,1685095725684,308.0,439.0
3742,1685095725684,522.0,409.0
3743,1685095725719,389.0,519.0
3744,1685095725719,449.0,426.0
3745,1685095725719,469.0,432.0
3746,1685095725750,474.0,438.0
3747,1685095725750,338.0,410.0
3748,1685095725750,470.0,467.0
3749,1685095725750,525.0,420.0
3750,1685095725782,381.0,416.0
3751,1685095725782,474.0,369.0
3752,1685095725782,426.0,458.0
3753,1685095725813,327.0,474.0
3754,1685095725813,322.0,389.0
3755,1685095725813,486.0,476.0
3756,1685095725813,440.0,457.0
3757,1685095725845,407.0,381.0
3758,1685095725845,440.0,503.0
3759,1685095725845,490.0,411.0
3760,1685095725876,491.0,467.0
3761,1685095725876,468.0,456.0
3762,1685095725876,394.0,376.0
3763,1685095725876,531.0,433.0
3764,1685095725907,393.0,457.0
3765,1685095725907,367.0,425.0
3766,1685095725907,473.0,425.0
3767,1685095725907,302.0,430.0
3768,1685095725953,613.0,411.0
3769,1685095725953,405.0,452.0
3770,1685095725953,693.0,439.0
3771,1685095725984,437.0,489.0
3772,1685095725984,479.0,433.0
3773,1685095725984,447.0,454.0
3774,1685095725984,499.0,441.0
3775,1685095726019,491.0,467.0
3776,1685095726019,450.0,394.0
3777,1685095726019,436.0,408.0
3778,1685095726051,784.0,461.0
3779,1685095726051,237.0,409.0
3780,1685095726051,452.0,436.0
