Sample Number (10000 samples per second),UNIX Timestamp (Milliseconds since 1970-01-01),C1 (),C2 ()
0,1685094327840,503.0,432.0
1,1685094327846,472.0,409.0
2,1685094327847,448.0,390.0
3,1685094327847,435.0,382.0
4,1685094327847,438.0,395.0
5,1685094327847,459.0,413.0
6,1685094327847,474.0,434.0
7,1685094327847,472.0,445.0
8,1685094327847,382.0,436.0
9,1685094327847,455.0,459.0
10,1685094327847,391.0,450.0
11,1685094327847,478.0,447.0
12,1685094327847,400.0,466.0
13,1685094327847,481.0,426.0
14,1685094327847,425.0,446.0
15,1685094327847,479.0,431.0
16,1685094327847,479.0,437.0
17,1685094327847,472.0,437.0
18,1685094327847,450.0,385.0
19,1685094327847,454.0,446.0
20,1685094327847,503.0,429.0
21,1685094327847,330.0,397.0
22,1685094327847,434.0,433.0
23,1685094327847,375.0,439.0
24,1685094327847,392.0,426.0
25,1685094327847,349.0,428.0
26,1685094327847,460.0,446.0
27,1685094327847,400.0,463.0
28,1685094327847,486.0,435.0
29,1685094327847,424.0,455.0
30,1685094327847,512.0,435.0
31,1685094327847,475.0,432.0
32,1685094327847,471.0,436.0
33,1685094327847,477.0,418.0
34,1685094327847,478.0,449.0
35,1685094327847,444.0,397.0
36,1685094327847,375.0,430.0
37,1685094327847,503.0,447.0
38,1685094327847,341.0,416.0
39,1685094327847,373.0,411.0
40,1685094327847,358.0,423.0
41,1685094327847,439.0,448.0
42,1685094327847,393.0,451.0
43,1685094327847,504.0,444.0
44,1685094327847,431.0,468.0
45,1685094327847,525.0,434.0
46,1685094327847,460.0,457.0
47,1685094327847,492.0,435.0
48,1685094327847,489.0,440.0
49,1685094327847,461.0,443.0
50,1685094327847,424.0,384.0
51,1685094327847,427.0,438.0
52,1685094327847,466.0,415.0
53,1685094327847,311.0,396.0
54,1685094327847,427.0,430.0
55,1685094327847,380.0,442.0
56,1685094327847,405.0,432.0
57,1685094327847,372.0,440.0
58,1685094327847,474.0,456.0
59,1685094327847,410.0,456.0
60,1685094327847,504.0,445.0
61,1685094327847,433.0,463.0
62,1685094327847,500.0,435.0
63,1685094327847,468.0,447.0
64,1685094327847,464.0,420.0
65,1685094327847,452.0,409.0
66,1685094327847,464.0,449.0
67,1685094327847,444.0,392.0
68,1685094327847,388.0,422.0
69,1685094327847,514.0,449.0
70,1685094327847,353.0,417.0
71,1685094327847,395.0,421.0
72,1685094327847,377.0,442.0
73,1685094327847,460.0,458.0
74,1685094327847,384.0,452.0
75,1685094327847,489.0,444.0
76,1685094327847,410.0,465.0
77,1685094327847,483.0,438.0
78,1685094327847,437.0,454.0
79,1685094327847,483.0,422.0
80,1685094327847,477.0,438.0
81,1685094327847,471.0,439.0
82,1685094327847,441.0,392.0
83,1685094327847,445.0,437.0
84,1685094327849,485.0,430.0
85,1685094327849,313.0,391.0
86,1685094327849,427.0,432.0
87,1685094327849,380.0,432.0
88,1685094327849,397.0,434.0
89,1685094327849,351.0,435.0
90,1685094327849,465.0,447.0
91,1685094327849,408.0,462.0
92,1685094327849,496.0,434.0
93,1685094327849,431.0,463.0
94,1685094327849,504.0,436.0
95,1685094327849,477.0,445.0
96,1685094327849,471.0,436.0
97,1685094327849,469.0,413.0
98,1685094327849,477.0,455.0
99,1685094327849,446.0,396.0
100,1685094327849,376.0,418.0
101,1685094327850,501.0,458.0
102,1685094327850,342.0,411.0
103,1685094327850,367.0,422.0
104,1685094327850,362.0,437.0
105,1685094327850,450.0,443.0
106,1685094327850,381.0,448.0
107,1685094327850,501.0,444.0
108,1685094327850,435.0,466.0
109,1685094327850,504.0,437.0
110,1685094327850,466.0,459.0
111,1685094327850,494.0,429.0
112,1685094327850,485.0,438.0
113,1685094327850,463.0,432.0
114,1685094327850,430.0,392.0
115,1685094327850,427.0,439.0
116,1685094327850,473.0,416.0
117,1685094327850,316.0,389.0
118,1685094327850,425.0,429.0
119,1685094327850,380.0,440.0
120,1685094327850,406.0,425.0
121,1685094327850,356.0,433.0
122,1685094327850,471.0,451.0
123,1685094327850,418.0,464.0
124,1685094327850,503.0,437.0
125,1685094327850,437.0,461.0
126,1685094327850,495.0,429.0
127,1685094327850,485.0,454.0
128,1685094327850,462.0,421.0
129,1685094327850,455.0,420.0
130,1685094327850,467.0,439.0
131,1685094327850,440.0,399.0
132,1685094327850,384.0,419.0
133,1685094327850,511.0,447.0
134,1685094327850,361.0,414.0
135,1685094327850,383.0,419.0
136,1685094327850,374.0,443.0
137,1685094327850,463.0,456.0
138,1685094327850,388.0,455.0
139,1685094327850,480.0,450.0
140,1685094327850,409.0,462.0
141,1685094327850,498.0,428.0
142,1685094327850,445.0,461.0
143,1685094327850,471.0,425.0
144,1685094327850,484.0,439.0
145,1685094327850,467.0,440.0
146,1685094327850,440.0,392.0
147,1685094327850,455.0,444.0
148,1685094327850,483.0,421.0
149,1685094327850,317.0,393.0
150,1685094327850,428.0,434.0
151,1685094327850,368.0,436.0
152,1685094327850,405.0,437.0
153,1685094327850,346.0,437.0
154,1685094327850,462.0,444.0
155,1685094327850,401.0,463.0
156,1685094327850,497.0,433.0
157,1685094327850,439.0,466.0
158,1685094327850,504.0,426.0
159,1685094327850,489.0,450.0
160,1685094327850,469.0,420.0
161,1685094327850,472.0,417.0
162,1685094327850,470.0,439.0
163,1685094327850,438.0,399.0
164,1685094327850,371.0,423.0
165,1685094327850,501.0,447.0
166,1685094327850,331.0,414.0
167,1685094327850,370.0,418.0
168,1685094327850,356.0,435.0
169,1685094327850,460.0,451.0
170,1685094327850,379.0,453.0
171,1685094327850,494.0,449.0
172,1685094327850,424.0,466.0
173,1685094327850,500.0,433.0
174,1685094327850,471.0,469.0
175,1685094327850,487.0,430.0
176,1685094327850,489.0,445.0
177,1685094327850,462.0,436.0
178,1685094327850,430.0,385.0
179,1685094327850,432.0,441.0
180,1685094327850,476.0,419.0
181,1685094327850,314.0,394.0
182,1685094327850,420.0,432.0
183,1685094327850,383.0,446.0
184,1685094327850,413.0,426.0
185,1685094327850,347.0,433.0
186,1685094327850,478.0,446.0
187,1685094327850,408.0,464.0
188,1685094327850,493.0,438.0
189,1685094327850,437.0,462.0
190,1685094327850,495.0,428.0
191,1685094327850,483.0,453.0
192,1685094327850,460.0,419.0
193,1685094327850,451.0,407.0
194,1685094327850,471.0,446.0
195,1685094327850,450.0,395.0
196,1685094327850,385.0,419.0
197,1685094327850,514.0,455.0
198,1685094327850,354.0,421.0
199,1685094327850,380.0,428.0
200,1685094327850,354.0,441.0
201,1685094327850,467.0,459.0
202,1685094327850,380.0,469.0
203,1685094327850,488.0,444.0
204,1685094327850,410.0,463.0
205,1685094327850,492.0,431.0
206,1685094327850,453.0,458.0
207,1685094327850,477.0,421.0
208,1685094327850,488.0,439.0
209,1685094327850,479.0,437.0
210,1685094327850,443.0,378.0
211,1685094327850,438.0,441.0
212,1685094327850,492.0,434.0
213,1685094327850,313.0,393.0
214,1685094327850,421.0,426.0
215,1685094327850,380.0,444.0
216,1685094327850,400.0,428.0
217,1685094327850,341.0,436.0
218,1685094327850,474.0,449.0
219,1685094327850,402.0,463.0
220,1685094327850,495.0,440.0
221,1685094327850,437.0,455.0
222,1685094327850,501.0,433.0
223,1685094327850,492.0,454.0
224,1685094327850,461.0,418.0
225,1685094327850,458.0,416.0
226,1685094327850,472.0,447.0
227,1685094327850,445.0,398.0
228,1685094327850,376.0,415.0
229,1685094327850,501.0,455.0
230,1685094327850,345.0,421.0
231,1685094327850,375.0,420.0
232,1685094327850,350.0,437.0
233,1685094327850,442.0,447.0
234,1685094327850,387.0,454.0
235,1685094327850,495.0,442.0
236,1685094327850,428.0,473.0
237,1685094327850,513.0,434.0
238,1685094327850,475.0,466.0
239,1685094327850,489.0,425.0
240,1685094327850,498.0,440.0
241,1685094327850,468.0,431.0
242,1685094327850,428.0,386.0
243,1685094327850,428.0,432.0
244,1685094327850,481.0,423.0
245,1685094327850,315.0,400.0
246,1685094327850,427.0,426.0
247,1685094327850,365.0,429.0
248,1685094327850,401.0,433.0
249,1685094327850,345.0,433.0
250,1685094327850,482.0,448.0
251,1685094327850,404.0,461.0
252,1685094327850,541.0,456.0
253,1685094327850,448.0,456.0
254,1685094327850,502.0,425.0
255,1685094327850,479.0,455.0
256,1685094327850,488.0,420.0
257,1685094327850,470.0,408.0
258,1685094327850,494.0,448.0
259,1685094327850,437.0,390.0
260,1685094327850,349.0,420.0
261,1685094327850,481.0,470.0
262,1685094327850,310.0,387.0
263,1685094327850,387.0,431.0
264,1685094327850,378.0,433.0
265,1685094327850,493.0,488.0
266,1685094327850,403.0,433.0
267,1685094327850,446.0,437.0
268,1685094327850,220.0,456.0
269,1685094327850,503.0,428.0
270,1685094327850,424.0,461.0
271,1685094327850,352.0,406.0
272,1685094327850,514.0,455.0
273,1685094327850,490.0,421.0
274,1685094327850,434.0,387.0
275,1685094327850,443.0,444.0
276,1685094327850,488.0,441.0
277,1685094327850,319.0,395.0
278,1685094327850,411.0,428.0
279,1685094327850,375.0,441.0
280,1685094327850,408.0,432.0
281,1685094327850,345.0,437.0
282,1685094327850,470.0,451.0
283,1685094327850,396.0,457.0
284,1685094327850,490.0,439.0
285,1685094327850,436.0,462.0
286,1685094327850,498.0,433.0
287,1685094327850,488.0,446.0
288,1685094327850,480.0,427.0
289,1685094327850,474.0,408.0
290,1685094327850,482.0,447.0
291,1685094327850,460.0,401.0
292,1685094327850,366.0,413.0
293,1685094327850,501.0,456.0
294,1685094327850,355.0,428.0
295,1685094327850,368.0,411.0
296,1685094327850,348.0,434.0
297,1685094327850,448.0,453.0
298,1685094327850,378.0,452.0
299,1685094327850,492.0,447.0
300,1685094327850,426.0,466.0
301,1685094327850,513.0,443.0
302,1685094327850,467.0,461.0
303,1685094327850,496.0,433.0
304,1685094327850,503.0,437.0
305,1685094327850,474.0,440.0
306,1685094327850,431.0,389.0
307,1685094327850,424.0,435.0
308,1685094327850,482.0,429.0
309,1685094327850,317.0,390.0
310,1685094327850,403.0,422.0
311,1685094327850,375.0,451.0
312,1685094327850,412.0,427.0
313,1685094327850,352.0,434.0
314,1685094327850,471.0,450.0
315,1685094327850,404.0,463.0
316,1685094327850,502.0,441.0
317,1685094327850,442.0,463.0
318,1685094327850,498.0,434.0
319,1685094327850,477.0,446.0
320,1685094327850,458.0,427.0
321,1685094327850,462.0,410.0
322,1685094327850,472.0,444.0
323,1685094327850,458.0,394.0
324,1685094327850,365.0,412.0
325,1685094327850,507.0,460.0
326,1685094327850,366.0,423.0
327,1685094327850,381.0,418.0
328,1685094327850,363.0,444.0
329,1685094327850,458.0,453.0
330,1685094327850,383.0,460.0
331,1685094327850,498.0,448.0
332,1685094327850,419.0,466.0
333,1685094327850,493.0,431.0
334,1685094327850,448.0,453.0
335,1685094327850,477.0,425.0
336,1685094327850,487.0,431.0
337,1685094327850,481.0,431.0
338,1685094327850,445.0,391.0
339,1685094327856,441.0,436.0
340,1685094327856,503.0,430.0
341,1685094327856,325.0,396.0
342,1685094327856,423.0,426.0
343,1685094327856,379.0,446.0
344,1685094327856,403.0,433.0
345,1685094327856,344.0,434.0
346,1685094327856,458.0,444.0
347,1685094327856,390.0,463.0
348,1685094327856,488.0,432.0
349,1685094327856,431.0,461.0
350,1685094327856,510.0,428.0
351,1685094327856,497.0,449.0
352,1685094327856,476.0,422.0
353,1685094327856,467.0,406.0
354,1685094327856,474.0,447.0
355,1685094327856,464.0,402.0
356,1685094327856,359.0,422.0
357,1685094327856,496.0,458.0
358,1685094327856,357.0,424.0
359,1685094327856,358.0,416.0
360,1685094327856,341.0,436.0
361,1685094327856,449.0,451.0
362,1685094327856,386.0,456.0
363,1685094327856,497.0,449.0
364,1685094327856,424.0,475.0
365,1685094327856,513.0,431.0
366,1685094327856,478.0,462.0
367,1685094327856,490.0,427.0
368,1685094327856,486.0,436.0
369,1685094327856,472.0,445.0
370,1685094327856,438.0,382.0
371,1685094327856,423.0,437.0
372,1685094327856,486.0,428.0
373,1685094327856,311.0,392.0
374,1685094327856,397.0,423.0
375,1685094327856,374.0,439.0
376,1685094327856,410.0,430.0
377,1685094327856,358.0,434.0
378,1685094327856,473.0,450.0
379,1685094327856,414.0,468.0
380,1685094327856,504.0,441.0
381,1685094327856,442.0,458.0
382,1685094327856,489.0,436.0
383,1685094327856,466.0,439.0
384,1685094327856,463.0,432.0
385,1685094327856,446.0,402.0
386,1685094327856,463.0,445.0
387,1685094327856,448.0,393.0
388,1685094327856,359.0,411.0
389,1685094327856,503.0,449.0
390,1685094327856,377.0,429.0
391,1685094327856,384.0,416.0
392,1685094327856,369.0,436.0
393,1685094327856,465.0,463.0
394,1685094327856,396.0,456.0
395,1685094327856,489.0,451.0
396,1685094327856,406.0,463.0
397,1685094327856,488.0,434.0
398,1685094327856,439.0,452.0
399,1685094327856,475.0,417.0
400,1685094327856,471.0,426.0
401,1685094327856,469.0,437.0
402,1685094327856,444.0,393.0
403,1685094327856,431.0,438.0
404,1685094327856,515.0,440.0
405,1685094327856,326.0,395.0
406,1685094327856,414.0,427.0
407,1685094327856,385.0,438.0
408,1685094327856,415.0,439.0
409,1685094327856,355.0,440.0
410,1685094327856,451.0,445.0
411,1685094327856,397.0,460.0
412,1685094327856,489.0,433.0
413,1685094327856,435.0,459.0
414,1685094327856,498.0,426.0
415,1685094327856,483.0,452.0
416,1685094327856,482.0,424.0
417,1685094327856,461.0,411.0
418,1685094327856,475.0,446.0
419,1685094327856,464.0,413.0
420,1685094327856,360.0,407.0
421,1685094327856,486.0,466.0
422,1685094327856,358.0,420.0
423,1685094327856,366.0,420.0
424,1685094327856,344.0,431.0
425,1685094327856,459.0,450.0
426,1685094327856,390.0,456.0
427,1685094327856,503.0,446.0
428,1685094327856,431.0,469.0
429,1685094327856,519.0,438.0
430,1685094327856,475.0,466.0
431,1685094327856,486.0,432.0
432,1685094327856,475.0,429.0
433,1685094327856,472.0,440.0
434,1685094327856,433.0,391.0
435,1685094327856,405.0,425.0
436,1685094327856,485.0,437.0
437,1685094327856,319.0,386.0
438,1685094327856,400.0,420.0
439,1685094327856,386.0,442.0
440,1685094327856,428.0,440.0
441,1685094327856,358.0,441.0
442,1685094327856,482.0,451.0
443,1685094327856,414.0,458.0
444,1685094327856,499.0,445.0
445,1685094327856,435.0,460.0
446,1685094327856,489.0,436.0
447,1685094327856,475.0,448.0
448,1685094327856,462.0,424.0
449,1685094327856,445.0,409.0
450,1685094327856,467.0,444.0
451,1685094327856,462.0,399.0
452,1685094327856,359.0,412.0
453,1685094327856,496.0,457.0
454,1685094327856,375.0,417.0
455,1685094327856,396.0,425.0
456,1685094327856,366.0,430.0
457,1685094327856,450.0,462.0
458,1685094327856,391.0,459.0
459,1685094327856,476.0,446.0
460,1685094327856,409.0,462.0
461,1685094327856,493.0,431.0
462,1685094327856,449.0,456.0
463,1685094327856,479.0,430.0
464,1685094327856,469.0,424.0
465,1685094327856,483.0,447.0
466,1685094327856,447.0,385.0
467,1685094327856,420.0,435.0
468,1685094327856,510.0,438.0
469,1685094327856,332.0,394.0
470,1685094327856,402.0,427.0
471,1685094327856,381.0,439.0
472,1685094327856,413.0,444.0
473,1685094327856,346.0,435.0
474,1685094327856,463.0,438.0
475,1685094327856,402.0,469.0
476,1685094327856,503.0,434.0
477,1685094327856,433.0,458.0
478,1685094327856,513.0,428.0
479,1685094327856,490.0,451.0
480,1685094327856,482.0,442.0
481,1685094327856,458.0,401.0
482,1685094327856,470.0,449.0
483,1685094327856,464.0,405.0
484,1685094327856,343.0,405.0
485,1685094327856,476.0,442.0
486,1685094327856,364.0,428.0
487,1685094327856,369.0,424.0
488,1685094327856,347.0,420.0
489,1685094327856,454.0,460.0
490,1685094327856,396.0,463.0
491,1685094327856,495.0,439.0
492,1685094327856,428.0,475.0
493,1685094327856,521.0,433.0
494,1685094327856,469.0,462.0
495,1685094327856,478.0,422.0
496,1685094327856,473.0,431.0
497,1685094327856,465.0,439.0
498,1685094327856,430.0,373.0
499,1685094327856,405.0,438.0
500,1685094327856,498.0,438.0
501,1685094327856,326.0,400.0
502,1685094327856,399.0,418.0
503,1685094327856,379.0,440.0
504,1685094327856,417.0,437.0
505,1685094327856,382.0,452.0
506,1685094327856,470.0,453.0
507,1685094327856,413.0,463.0
508,1685094327856,503.0,443.0
509,1685094327856,426.0,457.0
510,1685094327856,496.0,427.0
511,1685094327856,478.0,446.0
512,1685094327856,472.0,434.0
513,1685094327856,448.0,395.0
514,1685094327856,463.0,439.0
515,1685094327856,478.0,406.0
516,1685094327856,354.0,413.0
517,1685094327856,482.0,436.0
518,1685094327856,363.0,432.0
519,1685094327856,381.0,418.0
520,1685094327856,341.0,444.0
521,1685094327856,459.0,457.0
522,1685094327856,383.0,459.0
523,1685094327856,487.0,442.0
524,1685094327856,410.0,459.0
525,1685094327856,507.0,431.0
526,1685094327856,461.0,458.0
527,1685094327856,480.0,420.0
528,1685094327856,487.0,426.0
529,1685094327856,487.0,440.0
530,1685094327856,452.0,387.0
531,1685094327856,419.0,426.0
532,1685094327856,520.0,444.0
533,1685094327856,331.0,401.0
534,1685094327856,386.0,423.0
535,1685094327856,359.0,436.0
536,1685094327856,409.0,440.0
537,1685094327856,355.0,444.0
538,1685094327856,471.0,449.0
539,1685094327856,412.0,455.0
540,1685094327856,506.0,431.0
541,1685094327856,445.0,468.0
542,1685094327856,510.0,424.0
543,1685094327856,499.0,443.0
544,1685094327856,486.0,429.0
545,1685094327856,452.0,393.0
546,1685094327856,463.0,448.0
547,1685094327856,475.0,417.0
548,1685094327856,322.0,404.0
549,1685094327856,459.0,447.0
550,1685094327856,359.0,434.0
551,1685094327856,369.0,422.0
552,1685094327856,337.0,422.0
553,1685094327856,460.0,453.0
554,1685094327856,403.0,460.0
555,1685094327856,505.0,443.0
556,1685094327856,435.0,469.0
557,1685094327856,523.0,442.0
558,1685094327856,473.0,456.0
559,1685094327856,482.0,427.0
560,1685094327856,473.0,417.0
561,1685094327856,472.0,446.0
562,1685094327856,436.0,377.0
563,1685094327856,398.0,430.0
564,1685094327856,512.0,446.0
565,1685094327856,331.0,407.0
566,1685094327856,386.0,416.0
567,1685094327856,372.0,442.0
568,1685094327856,430.0,453.0
569,1685094327856,365.0,451.0
570,1685094327856,477.0,448.0
571,1685094327856,404.0,460.0
572,1685094327856,492.0,434.0
573,1685094327856,429.0,462.0
574,1685094327856,492.0,421.0
575,1685094327856,490.0,448.0
576,1685094327856,479.0,431.0
577,1685094327856,450.0,392.0
578,1685094327856,468.0,440.0
579,1685094327856,482.0,417.0
580,1685094327856,334.0,398.0
581,1685094327856,472.0,448.0
582,1685094327856,375.0,435.0
583,1685094327856,384.0,427.0
584,1685094327856,335.0,430.0
585,1685094327856,440.0,456.0
586,1685094327856,388.0,459.0
587,1685094327856,477.0,436.0
588,1685094327856,417.0,464.0
589,1685094327856,514.0,441.0
590,1685094327856,475.0,447.0
591,1685094327856,480.0,427.0
592,1685094327856,485.0,417.0
593,1685094327856,487.0,449.0
594,1685094327856,461.0,389.0
595,1685094327856,414.0,437.0
596,1685094327856,524.0,447.0
597,1685094327856,331.0,411.0
598,1685094327856,372.0,418.0
599,1685094327856,349.0,436.0
600,1685094327856,410.0,446.0
601,1685094327856,359.0,442.0
602,1685094327856,472.0,437.0
603,1685094327856,411.0,470.0
604,1685094327856,500.0,436.0
605,1685094327856,456.0,461.0
606,1685094327856,500.0,431.0
607,1685094327856,512.0,440.0
608,1685094327856,476.0,434.0
609,1685094327856,448.0,395.0
610,1685094327856,466.0,445.0
611,1685094327856,483.0,419.0
612,1685094327856,313.0,400.0
613,1685094327856,458.0,452.0
614,1685094327856,372.0,429.0
615,1685094327856,377.0,422.0
616,1685094327856,337.0,437.0
617,1685094327856,455.0,452.0
618,1685094327856,405.0,460.0
619,1685094327856,503.0,438.0
620,1685094327856,424.0,464.0
621,1685094327856,515.0,441.0
622,1685094327856,468.0,455.0
623,1685094327856,469.0,422.0
624,1685094327856,472.0,423.0
625,1685094327856,477.0,443.0
626,1685094327856,442.0,386.0
627,1685094327856,393.0,427.0
628,1685094327856,521.0,453.0
629,1685094327856,340.0,412.0
630,1685094327856,381.0,415.0
631,1685094327856,371.0,443.0
632,1685094327856,440.0,453.0
633,1685094327856,365.0,444.0
634,1685094327856,473.0,442.0
635,1685094327856,407.0,456.0
636,1685094327856,498.0,434.0
637,1685094327856,445.0,458.0
638,1685094327856,493.0,427.0
639,1685094327856,492.0,441.0
640,1685094327856,479.0,439.0
641,1685094327856,442.0,384.0
642,1685094327856,460.0,448.0
643,1685094327856,488.0,413.0
644,1685094327856,322.0,401.0
645,1685094327856,452.0,434.0
646,1685094327856,368.0,442.0
647,1685094327856,376.0,426.0
648,1685094327856,334.0,434.0
649,1685094327856,457.0,452.0
650,1685094327856,401.0,466.0
651,1685094327856,491.0,443.0
652,1685094327856,425.0,460.0
653,1685094327856,507.0,426.0
654,1685094327856,472.0,456.0
655,1685094327856,481.0,424.0
656,1685094327856,487.0,409.0
657,1685094327856,478.0,446.0
658,1685094327856,452.0,391.0
659,1685094327856,396.0,428.0
660,1685094327856,519.0,450.0
661,1685094327856,336.0,410.0
662,1685094327856,371.0,418.0
663,1685094327856,351.0,437.0
664,1685094327856,440.0,446.0
665,1685094327856,361.0,447.0
666,1685094327856,479.0,444.0
667,1685094327856,415.0,471.0
668,1685094327856,507.0,430.0
669,1685094327856,454.0,462.0
670,1685094327856,499.0,427.0
671,1685094327856,495.0,444.0
672,1685094327856,475.0,434.0
673,1685094327856,445.0,388.0
674,1685094327856,455.0,447.0
675,1685094327856,478.0,418.0
676,1685094327856,318.0,398.0
677,1685094327856,442.0,439.0
678,1685094327856,375.0,433.0
679,1685094327856,384.0,433.0
680,1685094327856,335.0,435.0
681,1685094327856,452.0,444.0
682,1685094327856,402.0,477.0
683,1685094327856,494.0,428.0
684,1685094327856,427.0,463.0
685,1685094327856,505.0,440.0
686,1685094327856,484.0,451.0
687,1685094327856,470.0,418.0
688,1685094327856,481.0,419.0
689,1685094327856,480.0,447.0
690,1685094327856,446.0,388.0
691,1685094327856,383.0,425.0
692,1685094327856,511.0,449.0
693,1685094327856,340.0,417.0
694,1685094327856,378.0,422.0
695,1685094327856,358.0,441.0
696,1685094327856,439.0,448.0
697,1685094327856,364.0,449.0
698,1685094327856,480.0,444.0
699,1685094327856,417.0,470.0
700,1685094327856,505.0,429.0
701,1685094327856,452.0,461.0
702,1685094327856,491.0,423.0
703,1685094327856,507.0,449.0
704,1685094327856,480.0,433.0
705,1685094327856,445.0,386.0
706,1685094327856,450.0,445.0
707,1685094327856,493.0,418.0
708,1685094327856,301.0,389.0
709,1685094327856,433.0,439.0
710,1685094327856,368.0,436.0
711,1685094327856,380.0,426.0
712,1685094327856,340.0,438.0
713,1685094327856,467.0,449.0
714,1685094327856,398.0,462.0
715,1685094327856,495.0,442.0
716,1685094327856,423.0,463.0
717,1685094327856,498.0,427.0
718,1685094327856,476.0,453.0
719,1685094327856,467.0,419.0
720,1685094327856,469.0,411.0
721,1685094327856,482.0,450.0
722,1685094327856,457.0,393.0
723,1685094327856,380.0,419.0
724,1685094327856,524.0,459.0
725,1685094327856,350.0,419.0
726,1685094327856,364.0,418.0
727,1685094327856,357.0,437.0
728,1685094327856,432.0,453.0
729,1685094327856,364.0,451.0
730,1685094327856,480.0,448.0
731,1685094327856,414.0,470.0
732,1685094327856,512.0,435.0
733,1685094327856,454.0,461.0
734,1685094327856,493.0,432.0
735,1685094327856,493.0,442.0
736,1685094327856,484.0,434.0
737,1685094327856,453.0,390.0
738,1685094327856,447.0,438.0
739,1685094327856,485.0,422.0
740,1685094327856,311.0,398.0
741,1685094327856,421.0,424.0
742,1685094327856,374.0,438.0
743,1685094327856,395.0,434.0
744,1685094327856,342.0,427.0
745,1685094327856,467.0,460.0
746,1685094327856,389.0,459.0
747,1685094327856,501.0,436.0
748,1685094327856,428.0,459.0
749,1685094327856,507.0,430.0
750,1685094327856,486.0,452.0
751,1685094327856,476.0,422.0
752,1685094327856,477.0,413.0
753,1685094327856,482.0,447.0
754,1685094327856,453.0,395.0
755,1685094327856,362.0,419.0
756,1685094327856,510.0,454.0
757,1685094327856,350.0,424.0
758,1685094327856,365.0,411.0
759,1685094327856,349.0,434.0
760,1685094327856,441.0,449.0
761,1685094327856,378.0,460.0
762,1685094327856,496.0,447.0
763,1685094327856,420.0,466.0
764,1685094327856,513.0,428.0
765,1685094327856,457.0,457.0
766,1685094327856,488.0,435.0
767,1685094327856,494.0,440.0
768,1685094327856,472.0,433.0
769,1685094327856,441.0,387.0
770,1685094327856,439.0,440.0
771,1685094327856,500.0,430.0
772,1685094327856,312.0,394.0
773,1685094327856,417.0,427.0
774,1685094327856,372.0,443.0
775,1685094327856,395.0,435.0
776,1685094327856,358.0,440.0
777,1685094327856,455.0,447.0
778,1685094327856,393.0,468.0
779,1685094327856,502.0,436.0
780,1685094327856,429.0,457.0
781,1685094327856,498.0,431.0
782,1685094327856,449.0,441.0
783,1685094327856,462.0,429.0
784,1685094327856,473.0,406.0
785,1685094327856,484.0,451.0
786,1685094327856,474.0,398.0
787,1685094327856,368.0,423.0
788,1685094327856,509.0,464.0
789,1685094327856,346.0,417.0
790,1685094327856,367.0,423.0
791,1685094327856,351.0,431.0
792,1685094327856,445.0,451.0
793,1685094327856,383.0,461.0
794,1685094327856,495.0,446.0
795,1685094327856,414.0,462.0
796,1685094327856,505.0,438.0
797,1685094327856,457.0,455.0
798,1685094327856,485.0,429.0
799,1685094327856,490.0,434.0
800,1685094327856,481.0,438.0
801,1685094327856,446.0,393.0
802,1685094327856,434.0,440.0
803,1685094327856,514.0,434.0
804,1685094327856,305.0,396.0
805,1685094327856,401.0,433.0
806,1685094327856,370.0,443.0
807,1685094327856,399.0,432.0
808,1685094327856,343.0,442.0
809,1685094327856,462.0,439.0
810,1685094327856,399.0,465.0
811,1685094327856,499.0,433.0
812,1685094327856,437.0,462.0
813,1685094327856,508.0,427.0
814,1685094327856,488.0,449.0
815,1685094327856,478.0,431.0
816,1685094327856,467.0,404.0
817,1685094327856,473.0,441.0
818,1685094327856,470.0,397.0
819,1685094327856,346.0,404.0
820,1685094327856,480.0,458.0
821,1685094327856,349.0,429.0
822,1685094327856,368.0,422.0
823,1685094327856,344.0,436.0
824,1685094327856,450.0,448.0
825,1685094327856,382.0,458.0
826,1685094327856,495.0,444.0
827,1685094327856,419.0,467.0
828,1685094327856,502.0,437.0
829,1685094327856,463.0,463.0
830,1685094327856,489.0,422.0
831,1685094327856,497.0,431.0
832,1685094327856,476.0,435.0
833,1685094327856,440.0,378.0
834,1685094327856,429.0,438.0
835,1685094327856,503.0,427.0
836,1685094327856,317.0,397.0
837,1685094327856,406.0,431.0
838,1685094327856,369.0,435.0
839,1685094327856,407.0,440.0
840,1685094327856,348.0,433.0
841,1685094327856,454.0,445.0
842,1685094327856,402.0,470.0
843,1685094327856,499.0,434.0
844,1685094327856,426.0,461.0
845,1685094327856,504.0,428.0
846,1685094327856,485.0,441.0
847,1685094327856,475.0,428.0
848,1685094327856,468.0,407.0
849,1685094327856,472.0,450.0
850,1685094327856,478.0,403.0
851,1685094327856,351.0,405.0
852,1685094327856,489.0,458.0
853,1685094327856,357.0,424.0
854,1685094327856,364.0,421.0
855,1685094327856,347.0,429.0
856,1685094327856,454.0,458.0
857,1685094327856,394.0,457.0
858,1685094327856,498.0,445.0
859,1685094327856,417.0,475.0
860,1685094327856,509.0,430.0
861,1685094327856,466.0,464.0
862,1685094327856,486.0,419.0
863,1685094327856,490.0,432.0
864,1685094327856,480.0,434.0
865,1685094327856,439.0,391.0
866,1685094327856,414.0,432.0
867,1685094327856,502.0,431.0
868,1685094327856,316.0,399.0
869,1685094327856,397.0,423.0
870,1685094327856,367.0,441.0
871,1685094327856,406.0,436.0
872,1685094327856,359.0,445.0
873,1685094327856,465.0,447.0
874,1685094327856,409.0,461.0
875,1685094327856,499.0,431.0
876,1685094327856,439.0,463.0
877,1685094327856,503.0,431.0
878,1685094327856,488.0,449.0
879,1685094327856,481.0,430.0
880,1685094327856,456.0,390.0
881,1685094327856,467.0,446.0
882,1685094327856,469.0,407.0
883,1685094327856,342.0,410.0
884,1685094327856,495.0,459.0
885,1685094327856,354.0,420.0
886,1685094327856,365.0,425.0
887,1685094327856,344.0,431.0
888,1685094327856,455.0,456.0
889,1685094327856,400.0,468.0
890,1685094327856,497.0,443.0
891,1685094327856,420.0,463.0
892,1685094327856,505.0,431.0
893,1685094327856,464.0,458.0
894,1685094327856,474.0,420.0
895,1685094327856,478.0,417.0
896,1685094327856,523.0,459.0
897,1685094327856,457.0,378.0
898,1685094327856,411.0,437.0
899,1685094327856,519.0,449.0
900,1685094327856,325.0,401.0
901,1685094327856,392.0,420.0
902,1685094327856,370.0,436.0
903,1685094327856,420.0,444.0
904,1685094327856,354.0,439.0
905,1685094327856,470.0,447.0
906,1685094327856,407.0,466.0
907,1685094327856,496.0,434.0
908,1685094327856,433.0,455.0
909,1685094327856,500.0,433.0
910,1685094327856,496.0,448.0
911,1685094327856,483.0,432.0
912,1685094327856,452.0,396.0
913,1685094327856,460.0,447.0
914,1685094327856,472.0,409.0
915,1685094327856,331.0,407.0
916,1685094327856,470.0,444.0
917,1685094327856,368.0,435.0
918,1685094327856,372.0,420.0
919,1685094327856,335.0,435.0
920,1685094327856,455.0,449.0
921,1685094327856,397.0,459.0
922,1685094327856,491.0,445.0
923,1685094327856,421.0,462.0
924,1685094327856,511.0,440.0
925,1685094327856,469.0,454.0
926,1685094327856,475.0,427.0
927,1685094327856,476.0,413.0
928,1685094327856,480.0,446.0
929,1685094327856,447.0,386.0
930,1685094327856,407.0,432.0
931,1685094327856,508.0,435.0
932,1685094327856,330.0,414.0
933,1685094327856,383.0,420.0
934,1685094327856,363.0,441.0
935,1685094327856,421.0,438.0
936,1685094327856,362.0,445.0
937,1685094327856,472.0,451.0
938,1685094327856,417.0,466.0
939,1685094327856,505.0,431.0
940,1685094327856,441.0,467.0
941,1685094327856,492.0,428.0
942,1685094327856,488.0,441.0
943,1685094327856,483.0,430.0
944,1685094327856,442.0,390.0
945,1685094327856,455.0,446.0
946,1685094327856,476.0,410.0
947,1685094327856,326.0,404.0
948,1685094327856,459.0,447.0
949,1685094327856,373.0,435.0
950,1685094327856,375.0,424.0
951,1685094327856,341.0,430.0
952,1685094327856,454.0,453.0
953,1685094327856,394.0,464.0
954,1685094327856,496.0,435.0
955,1685094327856,418.0,462.0
956,1685094327856,512.0,435.0
957,1685094327856,467.0,453.0
958,1685094327856,477.0,416.0
959,1685094327856,484.0,418.0
960,1685094327856,484.0,439.0
961,1685094327856,447.0,388.0
962,1685094327856,390.0,430.0
963,1685094327856,509.0,448.0
964,1685094327856,337.0,409.0
965,1685094327856,377.0,417.0
966,1685094327856,357.0,435.0
967,1685094327856,417.0,442.0
968,1685094327856,367.0,450.0
969,1685094327856,481.0,443.0
970,1685094327856,408.0,457.0
971,1685094327856,509.0,444.0
972,1685094327856,452.0,457.0
973,1685094327856,504.0,437.0
974,1685094327856,501.0,449.0
975,1685094327856,483.0,432.0
976,1685094327856,441.0,389.0
977,1685094327856,458.0,450.0
978,1685094327856,481.0,411.0
979,1685094327856,307.0,395.0
980,1685094327856,445.0,439.0
981,1685094327856,370.0,433.0
982,1685094327856,383.0,426.0
983,1685094327856,345.0,438.0
984,1685094327856,463.0,448.0
985,1685094327856,399.0,465.0
986,1685094327856,495.0,437.0
987,1685094327856,431.0,463.0
988,1685094327856,516.0,434.0
989,1685094327856,469.0,446.0
990,1685094327856,467.0,427.0
991,1685094327856,466.0,411.0
992,1685094327856,480.0,451.0
993,1685094327856,453.0,385.0
994,1685094327856,387.0,423.0
995,1685094327856,515.0,446.0
996,1685094327856,343.0,419.0
997,1685094327856,384.0,413.0
998,1685094327856,363.0,442.0
999,1685094327856,436.0,452.0
1000,1685094327856,363.0,453.0
1001,1685094327856,476.0,440.0
1002,1685094327856,409.0,464.0
1003,1685094327856,501.0,436.0
1004,1685094327856,442.0,457.0
1005,1685094327856,498.0,423.0
1006,1685094327856,490.0,442.0
1007,1685094327856,483.0,439.0
1008,1685094327856,452.0,392.0
1009,1685094327856,460.0,441.0
1010,1685094327856,484.0,417.0
1011,1685094327856,317.0,398.0
1012,1685094327856,442.0,439.0
1013,1685094327856,372.0,434.0
1014,1685094327856,380.0,436.0
1015,1685094327856,331.0,422.0
1016,1685094327856,454.0,460.0
1017,1685094327856,397.0,466.0
1018,1685094327856,490.0,440.0
1019,1685094327856,423.0,455.0
1020,1685094327856,520.0,433.0
1021,1685094327856,485.0,456.0
1022,1685094327856,478.0,419.0
1023,1685094327856,477.0,414.0
1024,1685094327856,486.0,450.0
1025,1685094327856,456.0,396.0
1026,1685094327856,374.0,422.0
1027,1685094327856,506.0,456.0
1028,1685094327856,314.0,406.0
1029,1685094327856,365.0,421.0
1030,1685094327856,347.0,435.0
1031,1685094327856,429.0,444.0
1032,1685094327856,380.0,458.0
1033,1685094327856,483.0,443.0
1034,1685094327856,421.0,471.0
1035,1685094327856,510.0,440.0
1036,1685094327856,452.0,459.0
1037,1685094327856,494.0,429.0
1038,1685094327856,494.0,438.0
1039,1685094327856,474.0,437.0
1040,1685094327856,438.0,383.0
1041,1685094327856,437.0,443.0
1042,1685094327856,488.0,417.0
1043,1685094327856,311.0,390.0
1044,1685094327856,427.0,436.0
1045,1685094327856,379.0,442.0
1046,1685094327856,396.0,434.0
1047,1685094327856,355.0,436.0
1048,1685094327856,457.0,443.0
1049,1685094327856,395.0,465.0
1050,1685094327856,497.0,437.0
1051,1685094327856,427.0,464.0
1052,1685094327856,502.0,433.0
1053,1685094327856,479.0,451.0
1054,1685094327856,469.0,426.0
1055,1685094327856,464.0,409.0
1056,1685094327856,475.0,446.0
1057,1685094327856,457.0,386.0
1058,1685094327856,378.0,424.0
1059,1685094327856,521.0,455.0
1060,1685094327856,350.0,421.0
1061,1685094327856,380.0,426.0
1062,1685094327856,357.0,438.0
1063,1685094327856,436.0,454.0
1064,1685094327856,377.0,454.0
1065,1685094327856,480.0,438.0
1066,1685094327856,406.0,467.0
1067,1685094327856,502.0,429.0
1068,1685094327856,451.0,454.0
1069,1685094327856,490.0,426.0
1070,1685094327856,493.0,433.0
1071,1685094327856,486.0,429.0
1072,1685094327856,457.0,384.0
1073,1685094327856,445.0,447.0
1074,1685094327856,501.0,428.0
1075,1685094327856,304.0,390.0
1076,1685094327856,413.0,425.0
1077,1685094327856,364.0,442.0
1078,1685094327856,390.0,436.0
1079,1685094327856,338.0,428.0
1080,1685094327856,449.0,447.0
1081,1685094327856,401.0,465.0
1082,1685094327856,500.0,436.0
1083,1685094327856,436.0,458.0
1084,1685094327856,517.0,435.0
1085,1685094327856,501.0,456.0
1086,1685094327856,477.0,421.0
1087,1685094327856,478.0,414.0
1088,1685094327856,481.0,450.0
1089,1685094327856,465.0,402.0
1090,1685094327856,363.0,414.0
1091,1685094327856,499.0,456.0
1092,1685094327856,351.0,421.0
1093,1685094327856,365.0,412.0
1094,1685094327856,338.0,437.0
1095,1685094327856,437.0,453.0
1096,1685094327856,380.0,455.0
1097,1685094327856,498.0,441.0
1098,1685094327856,429.0,464.0
1099,1685094327856,516.0,438.0
1100,1685094327856,460.0,458.0
1101,1685094327856,492.0,427.0
1102,1685094327856,481.0,430.0
1103,1685094327856,473.0,435.0
1104,1685094327856,441.0,387.0
1105,1685094327856,424.0,432.0
1106,1685094327856,494.0,429.0
1107,1685094327856,313.0,391.0
1108,1685094327856,410.0,425.0
1109,1685094327856,373.0,445.0
1110,1685094327856,412.0,437.0
1111,1685094327856,346.0,436.0
1112,1685094327856,463.0,444.0
1113,1685094327856,400.0,466.0
1114,1685094327856,496.0,438.0
1115,1685094327856,425.0,460.0
1116,1685094327856,504.0,428.0
1117,1685094327856,483.0,446.0
1118,1685094327856,472.0,417.0
1119,1685094327856,468.0,399.0
1120,1685094327856,479.0,446.0
1121,1685094327856,465.0,398.0
1122,1685094327856,371.0,425.0
1123,1685094327856,503.0,453.0
1124,1685094327856,355.0,423.0
1125,1685094327856,366.0,420.0
1126,1685094327856,341.0,438.0
1127,1685094327856,450.0,457.0
1128,1685094327856,380.0,449.0
1129,1685094327856,477.0,442.0
1130,1685094327856,408.0,466.0
1131,1685094327856,506.0,435.0
1132,1685094327856,459.0,448.0
1133,1685094327856,493.0,419.0
1134,1685094327856,496.0,437.0
1135,1685094327856,495.0,440.0
1136,1685094327856,455.0,385.0
1137,1685094327856,430.0,436.0
1138,1685094327856,499.0,429.0
1139,1685094327856,315.0,394.0
1140,1685094327856,389.0,423.0
1141,1685094327856,363.0,440.0
1142,1685094327856,400.0,442.0
1143,1685094327856,344.0,431.0
1144,1685094327856,468.0,444.0
1145,1685094327856,406.0,462.0
1146,1685094327856,505.0,439.0
1147,1685094327856,440.0,463.0
1148,1685094327856,519.0,433.0
1149,1685094327856,493.0,445.0
1150,1685094327856,481.0,425.0
1151,1685094327856,463.0,404.0
1152,1685094327856,466.0,450.0
1153,1685094327856,462.0,403.0
1154,1685094327856,352.0,410.0
1155,1685094327856,477.0,451.0
1156,1685094327856,354.0,425.0
1157,1685094327856,360.0,424.0
1158,1685094327856,350.0,436.0
1159,1685094327856,456.0,459.0
1160,1685094327856,385.0,458.0
1161,1685094327856,491.0,442.0
1162,1685094327856,422.0,466.0
1163,1685094327856,514.0,433.0
1164,1685094327856,469.0,460.0
1165,1685094327856,484.0,423.0
1166,1685094327856,484.0,429.0
1167,1685094327856,477.0,435.0
1168,1685094327856,445.0,384.0
1169,1685094327856,417.0,434.0
1170,1685094327856,511.0,431.0
1171,1685094327856,324.0,410.0
1172,1685094327856,393.0,432.0
1173,1685094327856,362.0,442.0
1174,1685094327856,412.0,438.0
1175,1685094327856,350.0,440.0
1176,1685094327856,467.0,437.0
1177,1685094327856,406.0,461.0
1178,1685094327856,504.0,442.0
1179,1685094327856,426.0,458.0
1180,1685094327856,507.0,426.0
1181,1685094327856,495.0,449.0
1182,1685094327856,476.0,430.0
1183,1685094327856,459.0,389.0
1184,1685094327856,467.0,449.0
1185,1685094327856,478.0,411.0
1186,1685094327856,351.0,412.0
1187,1685094327856,473.0,455.0
1188,1685094327856,365.0,426.0
1189,1685094327856,371.0,422.0
1190,1685094327856,336.0,432.0
1191,1685094327856,452.0,455.0
1192,1685094327856,384.0,456.0
1193,1685094327856,490.0,450.0
1194,1685094327856,418.0,462.0
1195,1685094327856,508.0,434.0
1196,1685094327856,468.0,452.0
1197,1685094327856,483.0,420.0
1198,1685094327856,490.0,426.0
1199,1685094327856,486.0,440.0
1200,1685094327856,451.0,387.0
1201,1685094327856,416.0,434.0
1202,1685094327856,509.0,440.0
1203,1685094327856,317.0,402.0
1204,1685094327856,382.0,418.0
1205,1685094327856,357.0,443.0
1206,1685094327856,418.0,448.0
1207,1685094327856,354.0,435.0
1208,1685094327856,464.0,440.0
1209,1685094327856,406.0,467.0
1210,1685094327856,508.0,429.0
1211,1685094327856,444.0,459.0
1212,1685094327856,508.0,431.0
1213,1685094327856,499.0,445.0
1214,1685094327856,488.0,436.0
1215,1685094327856,454.0,389.0
1216,1685094327856,467.0,452.0
1217,1685094327856,476.0,407.0
1218,1685094327856,331.0,403.0
1219,1685094327856,459.0,444.0
1220,1685094327856,360.0,434.0
1221,1685094327856,368.0,427.0
1222,1685094327856,335.0,434.0
1223,1685094327856,431.0,439.0
1224,1685094327856,391.0,462.0
1225,1685094327856,503.0,441.0
1226,1685094327856,427.0,464.0
1227,1685094327856,522.0,440.0
1228,1685094327856,474.0,454.0
1229,1685094327856,482.0,423.0
1230,1685094327856,481.0,419.0
1231,1685094327856,478.0,449.0
1232,1685094327856,449.0,388.0
1233,1685094327856,402.0,427.0
1234,1685094327856,509.0,446.0
1235,1685094327856,329.0,412.0
1236,1685094327856,375.0,424.0
1237,1685094327856,355.0,439.0
1238,1685094327856,429.0,449.0
1239,1685094327856,361.0,446.0
1240,1685094327856,478.0,448.0
1241,1685094327856,407.0,466.0
1242,1685094327856,505.0,433.0
1243,1685094327856,441.0,458.0
1244,1685094327856,496.0,421.0
1245,1685094327856,495.0,448.0
1246,1685094327856,487.0,423.0
1247,1685094327856,454.0,392.0
1248,1685094327856,465.0,440.0
1249,1685094327856,487.0,414.0
1250,1685094327856,329.0,401.0
1251,1685094327856,461.0,443.0
1252,1685094327856,372.0,436.0
1253,1685094327856,371.0,424.0
1254,1685094327856,333.0,432.0
1255,1685094327856,445.0,458.0
1256,1685094327856,394.0,466.0
1257,1685094327856,492.0,433.0
1258,1685094327856,443.0,471.0
1259,1685094327856,525.0,429.0
1260,1685094327856,481.0,455.0
1261,1685094327856,489.0,418.0
1262,1685094327856,488.0,418.0
1263,1685094327856,490.0,444.0
1264,1685094327856,463.0,389.0
1265,1685094327856,395.0,428.0
1266,1685094327856,513.0,447.0
1267,1685094327856,333.0,413.0
1268,1685094327856,366.0,418.0
1269,1685094327856,353.0,449.0
1270,1685094327856,424.0,448.0
1271,1685094327856,364.0,443.0
1272,1685094327856,478.0,437.0
1273,1685094327856,407.0,464.0
1274,1685094327856,508.0,436.0
1275,1685094327856,448.0,465.0
1276,1685094327856,505.0,427.0
1277,1685094327856,500.0,436.0
1278,1685094327856,483.0,435.0
1279,1685094327856,451.0,389.0
1280,1685094327856,445.0,438.0
1281,1685094327856,476.0,415.0
1282,1685094327856,311.0,396.0
1283,1685094327856,440.0,432.0
1284,1685094327856,363.0,435.0
1285,1685094327856,373.0,425.0
1286,1685094327856,329.0,436.0
1287,1685094327877,447.0,441.0
1288,1685094327877,406.0,469.0
1289,1685094327877,501.0,437.0
1290,1685094327904,433.0,470.0
1291,1685094327904,516.0,434.0
1292,1685094327904,478.0,450.0
1293,1685094327904,480.0,423.0
1294,1685094327935,480.0,415.0
1295,1685094327935,480.0,445.0
1296,1685094327935,455.0,393.0
1297,1685094327978,387.0,425.0
1298,1685094327978,516.0,449.0
1299,1685094327978,339.0,420.0
1300,1685094327978,366.0,414.0
1301,1685094327998,355.0,445.0
1302,1685094327998,435.0,449.0
1303,1685094327998,373.0,449.0
1304,1685094327998,482.0,441.0
1305,1685094328045,414.0,469.0
1306,1685094328045,510.0,434.0
1307,1685094328045,450.0,457.0
1308,1685094328078,499.0,432.0
1309,1685094328078,505.0,438.0
1310,1685094328078,483.0,434.0
1311,1685094328078,451.0,385.0
1312,1685094328112,445.0,440.0
1313,1685094328112,487.0,419.0
1314,1685094328112,312.0,398.0
1315,1685094328144,432.0,434.0
1316,1685094328144,372.0,439.0
1317,1685094328144,382.0,437.0
1318,1685094328144,348.0,444.0
1319,1685094328176,456.0,457.0
1320,1685094328176,403.0,467.0
1321,1685094328176,499.0,437.0
1322,1685094328210,423.0,462.0
1323,1685094328210,503.0,428.0
1324,1685094328210,477.0,452.0
1325,1685094328210,480.0,417.0
1326,1685094328239,479.0,406.0
1327,1685094328239,487.0,446.0
1328,1685094328239,461.0,396.0
1329,1685094328273,382.0,418.0
1330,1685094328273,518.0,463.0
1331,1685094328273,334.0,412.0
1332,1685094328273,377.0,429.0
1333,1685094328303,351.0,438.0
1334,1685094328303,432.0,451.0
1335,1685094328303,363.0,447.0
1336,1685094328303,483.0,440.0
1337,1685094328346,408.0,468.0
1338,1685094328346,513.0,427.0
1339,1685094328346,454.0,458.0
1340,1685094328378,500.0,434.0
1341,1685094328378,499.0,435.0
1342,1685094328378,479.0,439.0
1343,1685094328378,462.0,388.0
1344,1685094328413,446.0,440.0
1345,1685094328413,497.0,422.0
1346,1685094328413,308.0,389.0
1347,1685094328445,407.0,436.0
1348,1685094328445,364.0,439.0
1349,1685094328445,378.0,429.0
1350,1685094328445,330.0,429.0
1351,1685094328477,456.0,442.0
1352,1685094328477,398.0,463.0
1353,1685094328477,502.0,439.0
1354,1685094328508,438.0,463.0
1355,1685094328508,518.0,437.0
1356,1685094328508,501.0,451.0
1357,1685094328508,492.0,423.0
1358,1685094328539,481.0,401.0
1359,1685094328539,484.0,459.0
1360,1685094328539,461.0,386.0
1361,1685094328574,367.0,421.0
1362,1685094328574,504.0,453.0
1363,1685094328574,337.0,427.0
1364,1685094328574,365.0,421.0
1365,1685094328602,346.0,437.0
1366,1685094328602,448.0,453.0
1367,1685094328602,379.0,459.0
1368,1685094328602,502.0,451.0
1369,1685094328647,420.0,465.0
1370,1685094328647,519.0,436.0
1371,1685094328647,475.0,461.0
1372,1685094328679,491.0,428.0
1373,1685094328679,488.0,428.0
1374,1685094328679,470.0,427.0
1375,1685094328679,449.0,390.0
1376,1685094328713,436.0,435.0
1377,1685094328713,502.0,432.0
1378,1685094328713,308.0,400.0
1379,1685094328745,414.0,423.0
1380,1685094328745,371.0,442.0
1381,1685094328745,403.0,440.0
1382,1685094328745,348.0,444.0
1383,1685094328777,459.0,455.0
1384,1685094328777,392.0,463.0
1385,1685094328777,491.0,440.0
1386,1685094328809,416.0,457.0
1387,1685094328809,502.0,420.0
1388,1685094328809,468.0,442.0
1389,1685094328809,456.0,423.0
1390,1685094328841,479.0,406.0
1391,1685094328841,494.0,444.0
1392,1685094328841,478.0,397.0
1393,1685094328874,371.0,414.0
1394,1685094328874,499.0,449.0
1395,1685094328874,357.0,431.0
1396,1685094328874,363.0,425.0
1397,1685094328903,336.0,435.0
1398,1685094328903,435.0,448.0
1399,1685094328903,364.0,450.0
1400,1685094328903,485.0,444.0
1401,1685094328947,417.0,470.0
1402,1685094328947,519.0,437.0
1403,1685094328947,467.0,452.0
1404,1685094328978,497.0,427.0
1405,1685094328978,509.0,431.0
1406,1685094328978,492.0,440.0
1407,1685094328978,458.0,384.0
1408,1685094329016,423.0,437.0
1409,1685094329016,491.0,439.0
1410,1685094329016,306.0,385.0
1411,1685094329047,393.0,427.0
1412,1685094329047,352.0,440.0
1413,1685094329047,383.0,436.0
1414,1685094329047,347.0,434.0
1415,1685094329080,467.0,449.0
1416,1685094329080,406.0,458.0
1417,1685094329080,510.0,437.0
1418,1685094329109,443.0,467.0
1419,1685094329109,512.0,438.0
1420,1685094329109,501.0,454.0
1421,1685094329109,482.0,435.0
1422,1685094329141,462.0,392.0
1423,1685094329141,463.0,448.0
1424,1685094329141,452.0,398.0
1425,1685094329175,349.0,411.0
1426,1685094329175,484.0,455.0
1427,1685094329175,350.0,414.0
1428,1685094329175,367.0,418.0
1429,1685094329205,347.0,434.0
1430,1685094329205,455.0,459.0
1431,1685094329205,391.0,461.0
1432,1685094329205,499.0,452.0
1433,1685094329249,425.0,468.0
1434,1685094329249,508.0,431.0
1435,1685094329249,458.0,454.0
1436,1685094329281,481.0,421.0
1437,1685094329281,481.0,421.0
1438,1685094329281,480.0,444.0
1439,1685094329281,453.0,379.0
1440,1685094329320,423.0,441.0
1441,1685094329320,519.0,431.0
1442,1685094329320,325.0,400.0
1443,1685094329335,399.0,428.0
1444,1685094329335,370.0,444.0
1445,1685094329335,416.0,446.0
1446,1685094329335,351.0,439.0
1447,1685094329375,450.0,447.0
1448,1685094329375,391.0,455.0
1449,1685094329375,489.0,432.0
1450,1685094329415,426.0,456.0
1451,1685094329415,504.0,426.0
1452,1685094329415,495.0,443.0
1453,1685094329415,483.0,426.0
1454,1685094329446,467.0,392.0
1455,1685094329446,479.0,452.0
1456,1685094329446,487.0,406.0
1457,1685094329478,346.0,414.0
1458,1685094329478,479.0,456.0
1459,1685094329478,358.0,434.0
1460,1685094329478,364.0,423.0
1461,1685094329509,327.0,428.0
1462,1685094329509,437.0,457.0
1463,1685094329509,375.0,459.0
1464,1685094329509,498.0,445.0
1465,1685094329549,429.0,456.0
1466,1685094329549,522.0,436.0
1467,1685094329549,484.0,462.0
1468,1685094329581,496.0,420.0
1469,1685094329581,496.0,421.0
1470,1685094329581,496.0,445.0
1471,1685094329581,450.0,380.0
1472,1685094329615,412.0,444.0
1473,1685094329615,498.0,432.0
1474,1685094329615,311.0,405.0
1475,1685094329647,389.0,429.0
1476,1685094329647,352.0,440.0
1477,1685094329647,410.0,441.0
1478,1685094329647,347.0,437.0
1479,1685094329678,473.0,444.0
1480,1685094329678,414.0,468.0
1481,1685094329678,517.0,439.0
1482,1685094329710,454.0,457.0
1483,1685094329710,506.0,432.0
1484,1685094329710,495.0,438.0
1485,1685094329710,478.0,432.0
1486,1685094329749,458.0,391.0
1487,1685094329749,460.0,445.0
1488,1685094329749,472.0,405.0
1489,1685094329775,324.0,402.0
1490,1685094329775,459.0,442.0
1491,1685094329775,364.0,430.0
1492,1685094329775,368.0,427.0
1493,1685094329805,341.0,437.0
1494,1685094329805,448.0,447.0
1495,1685094329805,405.0,460.0
1496,1685094329805,498.0,443.0
1497,1685094329849,419.0,470.0
1498,1685094329849,504.0,438.0
1499,1685094329849,466.0,455.0
1500,1685094329881,476.0,427.0
1501,1685094329881,478.0,418.0
1502,1685094329881,479.0,440.0
1503,1685094329881,461.0,386.0
1504,1685094329917,409.0,428.0
1505,1685094329917,521.0,449.0
1506,1685094329917,334.0,405.0
1507,1685094329949,383.0,420.0
1508,1685094329949,356.0,437.0
1509,1685094329949,423.0,458.0
1510,1685094329949,353.0,449.0
1511,1685094329981,455.0,435.0
1512,1685094329981,402.0,467.0
1513,1685094329981,499.0,438.0
1514,1685094330012,440.0,465.0
1515,1685094330012,502.0,430.0
1516,1685094330012,495.0,438.0
1517,1685094330012,496.0,430.0
1518,1685094330043,463.0,395.0
1519,1685094330043,472.0,447.0
1520,1685094330043,492.0,411.0
1521,1685094330076,325.0,401.0
1522,1685094330076,461.0,453.0
1523,1685094330076,362.0,431.0
1524,1685094330076,362.0,429.0
1525,1685094330110,316.0,423.0
1526,1685094330110,439.0,455.0
1527,1685094330110,389.0,457.0
1528,1685094330110,497.0,439.0
1529,1685094330150,429.0,472.0
1530,1685094330150,523.0,431.0
1531,1685094330150,493.0,460.0
1532,1685094330182,489.0,425.0
1533,1685094330182,489.0,406.0
1534,1685094330182,493.0,446.0
1535,1685094330182,458.0,387.0
1536,1685094330217,386.0,425.0
1537,1685094330217,491.0,443.0
1538,1685094330217,325.0,408.0
1539,1685094330248,357.0,419.0
1540,1685094330248,341.0,432.0
1541,1685094330248,428.0,444.0
1542,1685094330248,363.0,441.0
1543,1685094330280,489.0,453.0
1544,1685094330280,419.0,465.0
1545,1685094330280,526.0,433.0
1546,1685094330315,470.0,465.0
1547,1685094330315,502.0,427.0
1548,1685094330315,503.0,439.0
1549,1685094330315,484.0,436.0
1550,1685094330344,441.0,387.0
1551,1685094330344,447.0,444.0
1552,1685094330344,465.0,406.0
1553,1685094330377,321.0,399.0
1554,1685094330377,446.0,439.0
1555,1685094330377,366.0,437.0
1556,1685094330377,388.0,427.0
1557,1685094330407,347.0,437.0
1558,1685094330407,464.0,454.0
1559,1685094330407,399.0,466.0
1560,1685094330407,490.0,441.0
1561,1685094330450,422.0,460.0
1562,1685094330450,501.0,427.0
1563,1685094330450,469.0,452.0
1564,1685094330482,474.0,413.0
1565,1685094330482,476.0,409.0
1566,1685094330482,493.0,451.0
1567,1685094330482,474.0,391.0
1568,1685094330518,399.0,424.0
1569,1685094330518,521.0,453.0
1570,1685094330518,341.0,419.0
1571,1685094330549,370.0,423.0
1572,1685094330549,355.0,437.0
1573,1685094330549,431.0,460.0
1574,1685094330549,352.0,446.0
1575,1685094330581,471.0,442.0
1576,1685094330581,397.0,466.0
1577,1685094330581,497.0,426.0
1578,1685094330614,453.0,463.0
1579,1685094330614,502.0,429.0
1580,1685094330614,507.0,439.0
1581,1685094330614,495.0,435.0
1582,1685094330644,464.0,389.0
1583,1685094330644,458.0,444.0
1584,1685094330644,487.0,418.0
1585,1685094330677,305.0,397.0
1586,1685094330677,426.0,435.0
1587,1685094330677,355.0,433.0
1588,1685094330677,366.0,432.0
1589,1685094330707,330.0,437.0
1590,1685094330707,441.0,444.0
1591,1685094330707,401.0,472.0
1592,1685094330707,507.0,432.0
1593,1685094330751,445.0,470.0
1594,1685094330751,529.0,436.0
1595,1685094330751,490.0,452.0
1596,1685094330783,487.0,424.0
1597,1685094330783,474.0,410.0
1598,1685094330783,474.0,454.0
1599,1685094330783,453.0,390.0
1600,1685094330818,371.0,421.0
1601,1685094330818,506.0,451.0
1602,1685094330818,331.0,421.0
1603,1685094330849,364.0,423.0
1604,1685094330849,340.0,438.0
1605,1685094330849,429.0,450.0
1606,1685094330849,377.0,450.0
1607,1685094330881,505.0,455.0
1608,1685094330881,428.0,468.0
1609,1685094330881,526.0,440.0
1610,1685094330912,452.0,461.0
1611,1685094330912,481.0,420.0
1612,1685094330912,487.0,446.0
1613,1685094330912,482.0,431.0
1614,1685094330944,444.0,392.0
1615,1685094330944,432.0,434.0
1616,1685094330944,483.0,419.0
1617,1685094330978,314.0,392.0
1618,1685094330978,422.0,422.0
1619,1685094330978,372.0,450.0
1620,1685094330978,396.0,440.0
1621,1685094331007,339.0,441.0
1622,1685094331007,458.0,452.0
1623,1685094331007,398.0,466.0
1624,1685094331007,492.0,436.0
1625,1685094331052,424.0,460.0
1626,1685094331052,504.0,427.0
1627,1685094331052,480.0,451.0
1628,1685094331084,479.0,421.0
1629,1685094331084,469.0,413.0
1630,1685094331084,498.0,452.0
1631,1685094331084,470.0,387.0
1632,1685094331119,367.0,417.0
1633,1685094331119,518.0,463.0
1634,1685094331119,350.0,423.0
1635,1685094331150,363.0,423.0
1636,1685094331150,349.0,440.0
1637,1685094331150,433.0,454.0
1638,1685094331150,371.0,461.0
1639,1685094331183,484.0,441.0
1640,1685094331183,412.0,470.0
1641,1685094331183,512.0,432.0
1642,1685094331214,454.0,460.0
1643,1685094331214,496.0,417.0
1644,1685094331214,495.0,433.0
1645,1685094331214,492.0,436.0
1646,1685094331245,459.0,384.0
1647,1685094331245,445.0,440.0
1648,1685094331245,511.0,433.0
1649,1685094331279,306.0,395.0
1650,1685094331279,402.0,429.0
1651,1685094331279,351.0,439.0
1652,1685094331279,385.0,436.0
1653,1685094331311,333.0,441.0
1654,1685094331311,462.0,444.0
1655,1685094331311,395.0,463.0
1656,1685094331311,507.0,436.0
1657,1685094331352,445.0,461.0
1658,1685094331352,525.0,438.0
1659,1685094331352,500.0,451.0
1660,1685094331384,489.0,430.0
1661,1685094331384,473.0,404.0
1662,1685094331384,480.0,450.0
1663,1685094331384,462.0,394.0
1664,1685094331419,347.0,417.0
1665,1685094331419,491.0,461.0
1666,1685094331419,342.0,426.0
1667,1685094331450,350.0,421.0
1668,1685094331450,335.0,432.0
1669,1685094331450,438.0,447.0
1670,1685094331450,385.0,458.0
1671,1685094331482,499.0,443.0
1672,1685094331482,427.0,466.0
1673,1685094331482,491.0,423.0
1674,1685094331514,475.0,468.0
1675,1685094331514,499.0,425.0
1676,1685094331514,497.0,431.0
1677,1685094331514,477.0,441.0
1678,1685094331548,443.0,379.0
1679,1685094331548,422.0,438.0
1680,1685094331548,495.0,430.0
1681,1685094331580,312.0,391.0
1682,1685094331580,396.0,416.0
1683,1685094331580,368.0,443.0
1684,1685094331580,405.0,445.0
1685,1685094331611,347.0,439.0
1686,1685094331611,469.0,445.0
1687,1685094331611,395.0,460.0
1688,1685094331611,499.0,440.0
1689,1685094331653,432.0,451.0
1690,1685094331653,498.0,427.0
1691,1685094331653,489.0,448.0
1692,1685094331685,483.0,426.0
1693,1685094331685,466.0,407.0
1694,1685094331685,477.0,448.0
1695,1685094331685,474.0,401.0
1696,1685094331720,360.0,416.0
1697,1685094331720,495.0,456.0
1698,1685094331720,354.0,423.0
1699,1685094331751,356.0,418.0
1700,1685094331751,341.0,437.0
1701,1685094331751,438.0,446.0
1702,1685094331751,384.0,466.0
1703,1685094331784,487.0,440.0
1704,1685094331784,413.0,462.0
1705,1685094331784,508.0,429.0
1706,1685094331815,467.0,458.0
1707,1685094331815,489.0,422.0
1708,1685094331815,493.0,422.0
1709,1685094331815,495.0,439.0
1710,1685094331846,450.0,381.0
1711,1685094331846,426.0,449.0
1712,1685094331846,518.0,443.0
1713,1685094331880,311.0,394.0
1714,1685094331880,379.0,424.0
1715,1685094331880,361.0,443.0
1716,1685094331880,398.0,434.0
1717,1685094331910,338.0,440.0
1718,1685094331910,464.0,443.0
1719,1685094331910,396.0,464.0
1720,1685094331910,512.0,439.0
1721,1685094331954,458.0,461.0
1722,1685094331954,519.0,423.0
1723,1685094331954,509.0,444.0
1724,1685094331985,491.0,432.0
1725,1685094331985,461.0,396.0
1726,1685094331985,470.0,448.0
1727,1685094331985,468.0,409.0
1728,1685094332020,341.0,411.0
1729,1685094332020,463.0,443.0
1730,1685094332020,352.0,436.0
1731,1685094332052,359.0,418.0
1732,1685094332052,328.0,432.0
1733,1685094332052,457.0,457.0
1734,1685094332052,390.0,458.0
1735,1685094332084,498.0,443.0
1736,1685094332084,428.0,462.0
1737,1685094332084,514.0,438.0
1738,1685094332116,482.0,460.0
1739,1685094332116,492.0,418.0
1740,1685094332116,487.0,425.0
1741,1685094332116,487.0,438.0
1742,1685094332152,440.0,390.0
1743,1685094332152,409.0,431.0
1744,1685094332152,496.0,434.0
1745,1685094332180,319.0,407.0
1746,1685094332180,383.0,421.0
1747,1685094332180,364.0,445.0
1748,1685094332180,415.0,443.0
1749,1685094332214,351.0,434.0
1750,1685094332214,463.0,445.0
1751,1685094332214,411.0,469.0
1752,1685094332214,504.0,439.0
1753,1685094332255,448.0,463.0
1754,1685094332255,509.0,429.0
1755,1685094332255,492.0,445.0
1756,1685094332287,483.0,432.0
1757,1685094332287,452.0,396.0
1758,1685094332287,465.0,442.0
1759,1685094332287,482.0,403.0
1760,1685094332321,339.0,410.0
1761,1685094332321,472.0,446.0
1762,1685094332321,363.0,432.0
1763,1685094332352,360.0,428.0
1764,1685094332352,336.0,432.0
1765,1685094332352,457.0,458.0
1766,1685094332352,394.0,462.0
1767,1685094332384,483.0,444.0
1768,1685094332384,411.0,450.0
1769,1685094332384,506.0,435.0
1770,1685094332415,473.0,453.0
1771,1685094332415,479.0,421.0
1772,1685094332415,488.0,416.0
1773,1685094332415,494.0,448.0
1774,1685094332447,457.0,386.0
1775,1685094332447,416.0,434.0
1776,1685094332447,520.0,452.0
1777,1685094332482,325.0,405.0
1778,1685094332482,375.0,423.0
1779,1685094332482,339.0,437.0
1780,1685094332482,440.0,455.0
1781,1685094332510,350.0,437.0
1782,1685094332510,468.0,448.0
1783,1685094332510,411.0,461.0
1784,1685094332510,514.0,443.0
1785,1685094332555,458.0,467.0
1786,1685094332555,518.0,431.0
1787,1685094332555,515.0,448.0
1788,1685094332587,491.0,429.0
1789,1685094332587,460.0,392.0
1790,1685094332587,467.0,449.0
1791,1685094332587,475.0,411.0
1792,1685094332622,313.0,399.0
1793,1685094332622,439.0,440.0
1794,1685094332622,349.0,426.0
1795,1685094332653,358.0,429.0
1796,1685094332653,324.0,425.0
1797,1685094332653,458.0,455.0
1798,1685094332653,401.0,461.0
1799,1685094332685,509.0,449.0
1800,1685094332685,434.0,457.0
1801,1685094332685,526.0,437.0
1802,1685094332718,489.0,458.0
1803,1685094332718,477.0,424.0
1804,1685094332718,479.0,421.0
1805,1685094332718,483.0,444.0
1806,1685094332748,441.0,385.0
1807,1685094332748,394.0,416.0
1808,1685094332748,505.0,451.0
1809,1685094332781,338.0,409.0
1810,1685094332781,370.0,417.0
1811,1685094332781,361.0,442.0
1812,1685094332781,434.0,448.0
1813,1685094332811,362.0,456.0
1814,1685094332811,482.0,448.0
1815,1685094332811,413.0,468.0
1816,1685094332811,507.0,438.0
1817,1685094332856,444.0,461.0
1818,1685094332856,483.0,424.0
1819,1685094332856,493.0,442.0
1820,1685094332888,490.0,431.0
1821,1685094332888,448.0,390.0
1822,1685094332888,462.0,440.0
1823,1685094332888,497.0,421.0
1824,1685094332922,321.0,407.0
1825,1685094332922,445.0,436.0
1826,1685094332922,367.0,437.0
1827,1685094332953,379.0,439.0
1828,1685094332953,333.0,437.0
1829,1685094332953,446.0,445.0
1830,1685094332953,386.0,464.0
1831,1685094332985,483.0,435.0
1832,1685094332985,416.0,458.0
1833,1685094332985,519.0,432.0
1834,1685094333016,475.0,452.0
1835,1685094333016,482.0,416.0
1836,1685094333016,488.0,415.0
1837,1685094333016,499.0,452.0
1838,1685094333049,460.0,392.0
1839,1685094333049,402.0,430.0
1840,1685094333049,520.0,462.0
1841,1685094333083,335.0,409.0
1842,1685094333083,350.0,419.0
1843,1685094333083,335.0,441.0
1844,1685094333083,421.0,451.0
1845,1685094333111,351.0,445.0
1846,1685094333111,494.0,457.0
1847,1685094333111,415.0,463.0
1848,1685094333111,514.0,435.0
1849,1685094333157,467.0,468.0
1850,1685094333157,513.0,426.0
1851,1685094333157,514.0,446.0
1852,1685094333188,492.0,442.0
1853,1685094333188,453.0,382.0
1854,1685094333188,447.0,444.0
1855,1685094333188,479.0,418.0
1856,1685094333224,295.0,395.0
1857,1685094333224,412.0,427.0
1858,1685094333224,367.0,445.0
1859,1685094333255,376.0,431.0
1860,1685094333255,330.0,431.0
1861,1685094333255,452.0,448.0
1862,1685094333255,406.0,468.0
1863,1685094333289,513.0,444.0
1864,1685094333289,448.0,463.0
1865,1685094333289,524.0,441.0
1866,1685094333319,492.0,456.0
1867,1685094333319,478.0,426.0
1868,1685094333319,484.0,405.0
1869,1685094333319,470.0,444.0
1870,1685094333350,449.0,387.0
1871,1685094333350,382.0,421.0
1872,1685094333350,511.0,457.0
1873,1685094333386,348.0,418.0
1874,1685094333386,367.0,422.0
1875,1685094333386,347.0,431.0
1876,1685094333386,438.0,450.0
1877,1685094333417,373.0,454.0
1878,1685094333417,494.0,450.0
1879,1685094333417,413.0,465.0
1880,1685094333417,500.0,435.0
1881,1685094333457,445.0,455.0
1882,1685094333457,492.0,420.0
1883,1685094333457,492.0,441.0
1884,1685094333489,485.0,426.0
1885,1685094333489,447.0,388.0
1886,1685094333489,454.0,441.0
1887,1685094333489,508.0,415.0
1888,1685094333524,307.0,396.0
1889,1685094333524,423.0,437.0
1890,1685094333524,368.0,437.0
1891,1685094333556,387.0,440.0
1892,1685094333556,334.0,437.0
1893,1685094333556,445.0,455.0
1894,1685094333556,391.0,467.0
1895,1685094333588,490.0,433.0
1896,1685094333588,431.0,467.0
1897,1685094333588,513.0,423.0
1898,1685094333621,484.0,446.0
1899,1685094333621,496.0,427.0
1900,1685094333621,480.0,411.0
1901,1685094333621,493.0,451.0
1902,1685094333653,457.0,392.0
1903,1685094333653,374.0,424.0
1904,1685094333653,510.0,458.0
1905,1685094333684,338.0,422.0
1906,1685094333684,355.0,417.0
1907,1685094333684,339.0,440.0
1908,1685094333684,424.0,446.0
1909,1685094333714,369.0,454.0
1910,1685094333714,495.0,448.0
1911,1685094333714,415.0,463.0
1912,1685094333714,527.0,438.0
1913,1685094333757,478.0,462.0
1914,1685094333757,511.0,431.0
1915,1685094333757,498.0,433.0
1916,1685094333789,491.0,440.0
1917,1685094333789,448.0,384.0
1918,1685094333789,432.0,437.0
1919,1685094333789,486.0,421.0
1920,1685094333825,301.0,395.0
1921,1685094333825,399.0,429.0
1922,1685094333825,359.0,438.0
1923,1685094333856,383.0,434.0
1924,1685094333856,325.0,428.0
1925,1685094333856,455.0,445.0
1926,1685094333856,407.0,466.0
1927,1685094333887,513.0,440.0
1928,1685094333887,456.0,469.0
1929,1685094333887,517.0,429.0
1930,1685094333919,496.0,450.0
1931,1685094333919,478.0,421.0
1932,1685094333919,469.0,403.0
1933,1685094333919,472.0,448.0
1934,1685094333952,457.0,394.0
1935,1685094333952,360.0,416.0
1936,1685094333952,495.0,454.0
1937,1685094333984,348.0,426.0
1938,1685094333984,363.0,420.0
1939,1685094333984,347.0,429.0
1940,1685094333984,447.0,460.0
1941,1685094334014,395.0,462.0
1942,1685094334014,497.0,447.0
1943,1685094334014,418.0,462.0
1944,1685094334014,502.0,431.0
1945,1685094334058,454.0,454.0
1946,1685094334058,487.0,423.0
1947,1685094334058,492.0,427.0
1948,1685094334090,487.0,439.0
1949,1685094334090,457.0,381.0
1950,1685094334090,433.0,436.0
1951,1685094334090,507.0,430.0
1952,1685094334125,319.0,399.0
1953,1685094334125,405.0,426.0
1954,1685094334125,373.0,443.0
1955,1685094334158,401.0,444.0
1956,1685094334158,335.0,440.0
1957,1685094334158,454.0,441.0
1958,1685094334158,389.0,467.0
1959,1685094334191,495.0,428.0
1960,1685094334191,431.0,461.0
1961,1685094334191,477.0,417.0
1962,1685094334224,513.0,458.0
1963,1685094334224,492.0,426.0
1964,1685094334224,475.0,408.0
1965,1685094334224,488.0,448.0
1966,1685094334256,476.0,402.0
1967,1685094334256,354.0,420.0
1968,1685094334256,484.0,448.0
1969,1685094334284,342.0,426.0
1970,1685094334284,354.0,419.0
1971,1685094334284,319.0,428.0
1972,1685094334284,430.0,454.0
1973,1685094334316,387.0,451.0
1974,1685094334316,489.0,449.0
1975,1685094334316,422.0,462.0
1976,1685094334316,533.0,433.0
1977,1685094334359,483.0,469.0
1978,1685094334359,505.0,425.0
1979,1685094334359,499.0,434.0
1980,1685094334391,488.0,438.0
1981,1685094334391,444.0,387.0
1982,1685094334391,408.0,430.0
1983,1685094334391,494.0,439.0
1984,1685094334425,307.0,395.0
1985,1685094334425,381.0,428.0
1986,1685094334425,359.0,438.0
1987,1685094334457,401.0,444.0
1988,1685094334457,343.0,440.0
1989,1685094334457,469.0,445.0
1990,1685094334457,412.0,464.0
1991,1685094334488,519.0,443.0
1992,1685094334488,448.0,457.0
1993,1685094334488,512.0,435.0
1994,1685094334520,496.0,454.0
1995,1685094334520,476.0,425.0
1996,1685094334520,448.0,399.0
1997,1685094334520,468.0,446.0
1998,1685094334552,469.0,407.0
1999,1685094334552,354.0,413.0
2000,1685094334552,482.0,449.0
2001,1685094334585,360.0,435.0
2002,1685094334585,364.0,421.0
2003,1685094334585,337.0,432.0
2004,1685094334585,460.0,462.0
2005,1685094334617,389.0,461.0
2006,1685094334617,482.0,440.0
2007,1685094334617,414.0,463.0
2008,1685094334617,507.0,428.0
2009,1685094334659,469.0,450.0
2010,1685094334659,493.0,422.0
2011,1685094334659,486.0,420.0
2012,1685094334691,495.0,448.0
2013,1685094334691,458.0,382.0
2014,1685094334691,428.0,436.0
2015,1685094334691,519.0,440.0
2016,1685094334726,315.0,403.0
2017,1685094334726,384.0,425.0
2018,1685094334726,356.0,435.0
2019,1685094334757,406.0,452.0
2020,1685094334757,349.0,434.0
2021,1685094334757,457.0,446.0
2022,1685094334757,404.0,467.0
2023,1685094334789,507.0,435.0
2024,1685094334789,431.0,456.0
2025,1685094334789,514.0,429.0
2026,1685094334821,506.0,445.0
2027,1685094334821,489.0,433.0
2028,1685094334821,473.0,401.0
2029,1685094334821,470.0,447.0
2030,1685094334852,478.0,410.0
2031,1685094334852,336.0,406.0
2032,1685094334852,450.0,446.0
2033,1685094334885,347.0,437.0
2034,1685094334885,361.0,430.0
2035,1685094334885,326.0,425.0
2036,1685094334885,445.0,450.0
2037,1685094334918,383.0,461.0
2038,1685094334918,494.0,442.0
2039,1685094334918,431.0,463.0
2040,1685094334918,526.0,436.0
2041,1685094334960,488.0,457.0
2042,1685094334960,493.0,423.0
2043,1685094334960,483.0,423.0
2044,1685094334993,490.0,441.0
2045,1685094334993,446.0,385.0
2046,1685094334993,409.0,436.0
2047,1685094334993,509.0,442.0
2048,1685094335027,317.0,408.0
2049,1685094335027,370.0,420.0
2050,1685094335027,341.0,437.0
2051,1685094335059,395.0,444.0
2052,1685094335059,356.0,445.0
2053,1685094335059,476.0,438.0
2054,1685094335059,404.0,461.0
2055,1685094335090,520.0,438.0
2056,1685094335090,449.0,459.0
2057,1685094335090,516.0,436.0
2058,1685094335122,506.0,442.0
2059,1685094335122,482.0,433.0
2060,1685094335122,450.0,389.0
2061,1685094335122,464.0,442.0
2062,1685094335153,470.0,412.0
2063,1685094335153,329.0,408.0
2064,1685094335153,452.0,447.0
2065,1685094335185,358.0,428.0
2066,1685094335185,372.0,428.0
2067,1685094335185,309.0,429.0
2068,1685094335185,479.0,464.0
2069,1685094335223,410.0,463.0
2070,1685094335223,501.0,445.0
2071,1685094335223,423.0,468.0
2072,1685094335223,512.0,425.0
2073,1685094335260,466.0,453.0
2074,1685094335260,477.0,419.0
2075,1685094335260,474.0,415.0
2076,1685094335292,492.0,447.0
2077,1685094335292,447.0,377.0
2078,1685094335292,396.0,428.0
2079,1685094335292,522.0,446.0
2080,1685094335328,336.0,411.0
2081,1685094335328,379.0,414.0
2082,1685094335328,360.0,441.0
2083,1685094335359,422.0,461.0
2084,1685094335359,369.0,443.0
2085,1685094335359,467.0,445.0
2086,1685094335359,399.0,460.0
2087,1685094335390,496.0,438.0
2088,1685094335390,438.0,456.0
2089,1685094335390,499.0,435.0
2090,1685094335422,498.0,442.0
2091,1685094335422,484.0,441.0
2092,1685094335422,448.0,380.0
2093,1685094335422,466.0,448.0
2094,1685094335453,487.0,414.0
2095,1685094335453,321.0,397.0
2096,1685094335453,446.0,442.0
2097,1685094335485,364.0,433.0
2098,1685094335485,364.0,425.0
2099,1685094335485,329.0,433.0
2100,1685094335485,435.0,449.0
2101,1685094335516,392.0,463.0
2102,1685094335516,498.0,433.0
2103,1685094335516,432.0,463.0
2104,1685094335516,530.0,439.0
2105,1685094335561,479.0,451.0
2106,1685094335561,484.0,426.0
2107,1685094335561,476.0,413.0
2108,1685094335593,488.0,451.0
2109,1685094335593,453.0,397.0
2110,1685094335593,389.0,424.0
2111,1685094335593,507.0,446.0
2112,1685094335628,327.0,411.0
2113,1685094335628,367.0,418.0
2114,1685094335628,350.0,428.0
2115,1685094335660,426.0,452.0
2116,1685094335660,376.0,458.0
2117,1685094335660,489.0,442.0
2118,1685094335660,423.0,470.0
2119,1685094335692,514.0,429.0
2120,1685094335692,455.0,462.0
2121,1685094335692,503.0,426.0
2122,1685094335724,496.0,441.0
2123,1685094335724,479.0,437.0
2124,1685094335724,444.0,389.0
2125,1685094335724,444.0,435.0
2126,1685094335756,473.0,419.0
2127,1685094335756,312.0,394.0
2128,1685094335756,433.0,429.0
2129,1685094335788,373.0,430.0
2130,1685094335788,392.0,431.0
2131,1685094335788,352.0,435.0
2132,1685094335788,445.0,445.0
2133,1685094335818,406.0,472.0
2134,1685094335818,499.0,436.0
2135,1685094335818,422.0,459.0
2136,1685094335818,505.0,434.0
2137,1685094335862,468.0,449.0
2138,1685094335862,483.0,421.0
2139,1685094335862,468.0,416.0
2140,1685094335894,486.0,445.0
2141,1685094335894,462.0,392.0
2142,1685094335894,392.0,421.0
2143,1685094335894,519.0,457.0
2144,1685094335929,341.0,408.0
2145,1685094335929,375.0,420.0
2146,1685094335929,359.0,433.0
2147,1685094335961,431.0,460.0
2148,1685094335961,374.0,451.0
2149,1685094335961,480.0,446.0
2150,1685094335961,405.0,460.0
2151,1685094335993,502.0,435.0
2152,1685094335993,447.0,453.0
2153,1685094335993,494.0,430.0
2154,1685094336024,498.0,437.0
2155,1685094336024,492.0,433.0
2156,1685094336024,446.0,379.0
2157,1685094336024,457.0,452.0
2158,1685094336055,487.0,418.0
2159,1685094336055,305.0,392.0
2160,1685094336055,425.0,430.0
2161,1685094336087,367.0,437.0
2162,1685094336087,371.0,433.0
2163,1685094336087,330.0,437.0
2164,1685094336087,446.0,453.0
2165,1685094336118,401.0,465.0
2166,1685094336118,506.0,434.0
2167,1685094336118,436.0,462.0
2168,1685094336118,522.0,433.0
2169,1685094336163,493.0,455.0
2170,1685094336163,482.0,426.0
2171,1685094336163,474.0,415.0
2172,1685094336195,481.0,446.0
2173,1685094336195,459.0,397.0
2174,1685094336195,372.0,425.0
2175,1685094336195,500.0,450.0
2176,1685094336229,341.0,422.0
2177,1685094336229,356.0,412.0
2178,1685094336229,349.0,442.0
2179,1685094336261,438.0,448.0
2180,1685094336261,383.0,456.0
2181,1685094336261,502.0,448.0
2182,1685094336261,419.0,470.0
2183,1685094336294,522.0,436.0
2184,1685094336294,454.0,460.0
2185,1685094336294,500.0,425.0
2186,1685094336326,494.0,434.0
2187,1685094336326,483.0,437.0
2188,1685094336326,444.0,392.0
2189,1685094336326,435.0,439.0
2190,1685094336357,486.0,422.0
2191,1685094336357,318.0,390.0
2192,1685094336357,418.0,434.0
2193,1685094336389,371.0,436.0
2194,1685094336389,395.0,428.0
2195,1685094336389,349.0,438.0
2196,1685094336389,467.0,456.0
2197,1685094336420,402.0,461.0
2198,1685094336420,503.0,441.0
2199,1685094336420,434.0,458.0
2200,1685094336420,505.0,428.0
2201,1685094336465,470.0,454.0
2202,1685094336465,478.0,421.0
2203,1685094336465,464.0,406.0
2204,1685094336496,475.0,440.0
2205,1685094336496,461.0,398.0
2206,1685094336496,369.0,414.0
2207,1685094336496,504.0,452.0
2208,1685094336531,351.0,429.0
2209,1685094336531,369.0,425.0
2210,1685094336531,359.0,439.0
2211,1685094336562,429.0,448.0
2212,1685094336562,375.0,465.0
2213,1685094336562,479.0,439.0
2214,1685094336562,400.0,473.0
2215,1685094336594,510.0,426.0
2216,1685094336594,448.0,450.0
2217,1685094336594,490.0,424.0
2218,1685094336625,494.0,431.0
2219,1685094336625,482.0,441.0
2220,1685094336625,456.0,389.0
2221,1685094336625,441.0,433.0
2222,1685094336656,499.0,438.0
2223,1685094336656,320.0,393.0
2224,1685094336656,402.0,424.0
2225,1685094336688,372.0,443.0
2226,1685094336688,381.0,434.0
2227,1685094336688,332.0,433.0
2228,1685094336688,461.0,450.0
2229,1685094336719,399.0,460.0
2230,1685094336719,503.0,436.0
2231,1685094336719,436.0,454.0
2232,1685094336719,520.0,432.0
2233,1685094336766,499.0,457.0
2234,1685094336766,488.0,426.0
2235,1685094336766,466.0,414.0
2236,1685094336788,477.0,448.0
2237,1685094336788,458.0,402.0
2238,1685094336788,355.0,409.0
2239,1685094336788,491.0,456.0
2240,1685094336831,341.0,427.0
2241,1685094336831,353.0,418.0
2242,1685094336831,342.0,432.0
2243,1685094336862,437.0,449.0
2244,1685094336862,385.0,457.0
2245,1685094336862,500.0,448.0
2246,1685094336862,424.0,461.0
2247,1685094336894,535.0,441.0
2248,1685094336894,465.0,459.0
2249,1685094336894,489.0,430.0
2250,1685094336925,488.0,425.0
2251,1685094336925,481.0,434.0
2252,1685094336925,436.0,383.0
2253,1685094336925,420.0,435.0
2254,1685094336957,494.0,437.0
2255,1685094336957,316.0,399.0
2256,1685094336957,393.0,416.0
2257,1685094336988,377.0,440.0
2258,1685094336988,408.0,444.0
2259,1685094336988,361.0,447.0
2260,1685094336988,475.0,445.0
2261,1685094337020,400.0,467.0
2262,1685094337020,501.0,436.0
2263,1685094337020,427.0,460.0
2264,1685094337020,504.0,426.0
2265,1685094337064,476.0,445.0
2266,1685094337064,477.0,421.0
2267,1685094337064,459.0,402.0
2268,1685094337095,476.0,446.0
2269,1685094337095,482.0,396.0
2270,1685094337095,354.0,417.0
2271,1685094337095,496.0,457.0
2272,1685094337133,372.0,433.0
2273,1685094337133,366.0,427.0
2274,1685094337133,345.0,434.0
2275,1685094337164,431.0,456.0
2276,1685094337164,382.0,456.0
2277,1685094337164,481.0,446.0
2278,1685094337164,406.0,458.0
2279,1685094337196,514.0,436.0
2280,1685094337196,469.0,458.0
2281,1685094337196,499.0,422.0
2282,1685094337227,489.0,427.0
2283,1685094337227,495.0,449.0
2284,1685094337227,457.0,389.0
2285,1685094337227,430.0,440.0
2286,1685094337264,511.0,433.0
2287,1685094337264,313.0,405.0
2288,1685094337264,384.0,420.0
2289,1685094337291,353.0,439.0
2290,1685094337291,394.0,434.0
2291,1685094337291,346.0,444.0
2292,1685094337291,463.0,442.0
2293,1685094337322,404.0,459.0
2294,1685094337322,511.0,434.0
2295,1685094337322,441.0,463.0
2296,1685094337322,525.0,427.0
2297,1685094337365,503.0,451.0
2298,1685094337365,484.0,427.0
2299,1685094337365,458.0,404.0
2300,1685094337397,466.0,448.0
2301,1685094337397,461.0,404.0
2302,1685094337397,329.0,405.0
2303,1685094337397,465.0,446.0
2304,1685094337433,355.0,432.0
2305,1685094337433,360.0,416.0
2306,1685094337433,336.0,432.0
2307,1685094337464,444.0,452.0
2308,1685094337464,400.0,458.0
2309,1685094337464,505.0,441.0
2310,1685094337464,424.0,465.0
2311,1685094337496,529.0,441.0
2312,1685094337496,467.0,458.0
2313,1685094337496,488.0,422.0
2314,1685094337527,479.0,425.0
2315,1685094337527,484.0,439.0
2316,1685094337527,432.0,384.0
2317,1685094337527,405.0,426.0
2318,1685094337559,509.0,445.0
2319,1685094337559,318.0,400.0
2320,1685094337559,388.0,431.0
2321,1685094337590,364.0,436.0
2322,1685094337590,410.0,453.0
2323,1685094337590,356.0,441.0
2324,1685094337590,470.0,443.0
2325,1685094337622,401.0,474.0
2326,1685094337622,499.0,431.0
2327,1685094337622,437.0,461.0
2328,1685094337622,506.0,421.0
2329,1685094337665,494.0,444.0
2330,1685094337665,486.0,433.0
2331,1685094337665,469.0,399.0
2332,1685094337697,469.0,445.0
2333,1685094337697,486.0,405.0
2334,1685094337697,328.0,405.0
2335,1685094337697,463.0,451.0
2336,1685094337733,367.0,431.0
2337,1685094337733,355.0,419.0
2338,1685094337733,333.0,442.0
2339,1685094337764,449.0,450.0
2340,1685094337764,383.0,461.0
2341,1685094337764,493.0,440.0
2342,1685094337764,424.0,464.0
2343,1685094337796,517.0,433.0
2344,1685094337796,481.0,453.0
2345,1685094337796,488.0,419.0
2346,1685094337829,490.0,418.0
2347,1685094337829,499.0,442.0
2348,1685094337829,452.0,389.0
2349,1685094337829,411.0,427.0
2350,1685094337859,515.0,453.0
2351,1685094337859,317.0,406.0
2352,1685094337859,362.0,417.0
2353,1685094337891,345.0,440.0
2354,1685094337891,408.0,439.0
2355,1685094337891,352.0,444.0
2356,1685094337891,476.0,443.0
2357,1685094337922,411.0,466.0
2358,1685094337922,519.0,434.0
2359,1685094337922,461.0,462.0
2360,1685094337922,515.0,432.0
2361,1685094337966,507.0,448.0
2362,1685094337966,486.0,436.0
2363,1685094337966,456.0,391.0
2364,1685094337998,452.0,441.0
2365,1685094337998,469.0,420.0
2366,1685094337998,310.0,398.0
2367,1685094337998,443.0,446.0
2368,1685094338033,361.0,431.0
2369,1685094338033,363.0,419.0
2370,1685094338033,331.0,436.0
2371,1685094338064,458.0,452.0
2372,1685094338064,402.0,461.0
2373,1685094338064,510.0,447.0
2374,1685094338064,437.0,462.0
2375,1685094338097,517.0,434.0
2376,1685094338097,481.0,456.0
2377,1685094338097,483.0,419.0
2378,1685094338128,481.0,419.0
2379,1685094338128,481.0,447.0
2380,1685094338128,447.0,387.0
2381,1685094338128,397.0,421.0
2382,1685094338159,506.0,441.0
2383,1685094338159,328.0,413.0
2384,1685094338159,374.0,421.0
2385,1685094338191,359.0,444.0
2386,1685094338191,429.0,453.0
2387,1685094338191,358.0,448.0
2388,1685094338191,471.0,453.0
2389,1685094338222,402.0,456.0
2390,1685094338222,495.0,426.0
2391,1685094338222,447.0,466.0
2392,1685094338222,498.0,427.0
2393,1685094338267,501.0,441.0
2394,1685094338267,497.0,436.0
2395,1685094338267,454.0,384.0
2396,1685094338299,464.0,447.0
2397,1685094338299,494.0,408.0
2398,1685094338299,315.0,397.0
2399,1685094338299,441.0,443.0
2400,1685094338334,360.0,430.0
2401,1685094338334,368.0,434.0
2402,1685094338334,326.0,431.0
2403,1685094338365,441.0,443.0
2404,1685094338365,396.0,467.0
2405,1685094338365,495.0,435.0
2406,1685094338365,430.0,467.0
2407,1685094338396,520.0,429.0
2408,1685094338396,486.0,457.0
2409,1685094338396,485.0,421.0
2410,1685094338428,481.0,412.0
2411,1685094338428,493.0,448.0
2412,1685094338428,455.0,394.0
2413,1685094338428,390.0,429.0
2414,1685094338460,503.0,440.0
2415,1685094338460,312.0,411.0
2416,1685094338460,338.0,426.0
2417,1685094338495,351.0,440.0
2418,1685094338495,437.0,447.0
2419,1685094338495,356.0,442.0
2420,1685094338495,483.0,446.0
2421,1685094338522,426.0,462.0
2422,1685094338522,516.0,435.0
2423,1685094338522,465.0,462.0
2424,1685094338522,502.0,427.0
2425,1685094338568,506.0,444.0
2426,1685094338568,484.0,434.0
2427,1685094338568,444.0,386.0
2428,1685094338599,445.0,441.0
2429,1685094338599,471.0,416.0
2430,1685094338599,304.0,392.0
2431,1685094338599,434.0,435.0
2432,1685094338634,367.0,436.0
2433,1685094338634,369.0,425.0
2434,1685094338634,339.0,433.0
2435,1685094338666,465.0,453.0
2436,1685094338666,403.0,461.0
2437,1685094338666,498.0,450.0
2438,1685094338666,429.0,464.0
2439,1685094338697,513.0,431.0
2440,1685094338697,481.0,450.0
2441,1685094338697,483.0,417.0
2442,1685094338729,476.0,405.0
2443,1685094338729,482.0,447.0
2444,1685094338729,461.0,388.0
2445,1685094338729,383.0,424.0
2446,1685094338760,512.0,454.0
2447,1685094338760,342.0,421.0
2448,1685094338760,363.0,420.0
2449,1685094338791,349.0,436.0
2450,1685094338791,436.0,453.0
2451,1685094338791,362.0,449.0
2452,1685094338791,487.0,443.0
2453,1685094338822,416.0,465.0
2454,1685094338822,511.0,425.0
2455,1685094338822,463.0,468.0
2456,1685094338822,503.0,424.0
2457,1685094338868,497.0,438.0
2458,1685094338868,491.0,439.0
2459,1685094338868,456.0,381.0
2460,1685094338900,447.0,445.0
2461,1685094338900,491.0,426.0
2462,1685094338900,308.0,393.0
2463,1685094338900,413.0,426.0
2464,1685094338936,359.0,442.0
2465,1685094338936,378.0,436.0
2466,1685094338936,330.0,424.0
2467,1685094338968,456.0,457.0
2468,1685094338968,406.0,461.0
2469,1685094338968,500.0,439.0
2470,1685094338968,439.0,462.0
2471,1685094338999,526.0,430.0
2472,1685094338999,475.0,444.0
2473,1685094338999,485.0,432.0
2474,1685094339030,482.0,406.0
2475,1685094339030,482.0,452.0
2476,1685094339030,463.0,388.0
2477,1685094339030,368.0,420.0
2478,1685094339061,497.0,457.0
2479,1685094339061,347.0,426.0
2480,1685094339061,357.0,418.0
2481,1685094339101,342.0,440.0
2482,1685094339101,439.0,447.0
2483,1685094339101,364.0,450.0
2484,1685094339101,497.0,449.0
2485,1685094339130,430.0,467.0
2486,1685094339130,522.0,432.0
2487,1685094339130,466.0,461.0
2488,1685094339130,497.0,423.0
2489,1685094339169,501.0,433.0
2490,1685094339169,484.0,437.0
2491,1685094339169,451.0,389.0
2492,1685094339201,437.0,437.0
2493,1685094339201,491.0,428.0
2494,1685094339201,306.0,392.0
2495,1685094339201,406.0,425.0
2496,1685094339236,361.0,438.0
2497,1685094339236,386.0,441.0
2498,1685094339236,346.0,437.0
2499,1685094339268,465.0,452.0
2500,1685094339268,404.0,465.0
2501,1685094339268,499.0,431.0
2502,1685094339268,438.0,457.0
2503,1685094339299,522.0,429.0
2504,1685094339299,486.0,447.0
2505,1685094339299,493.0,431.0
2506,1685094339331,484.0,409.0
2507,1685094339331,475.0,447.0
2508,1685094339331,460.0,400.0
2509,1685094339331,358.0,416.0
2510,1685094339362,497.0,458.0
2511,1685094339362,338.0,424.0
2512,1685094339362,365.0,423.0
2513,1685094339393,341.0,428.0
2514,1685094339393,436.0,451.0
2515,1685094339393,372.0,450.0
2516,1685094339393,493.0,449.0
2517,1685094339425,418.0,468.0
2518,1685094339425,520.0,437.0
2519,1685094339425,466.0,455.0
2520,1685094339425,498.0,430.0
2521,1685094339469,496.0,429.0
2522,1685094339469,478.0,434.0
2523,1685094339469,448.0,395.0
2524,1685094339503,430.0,427.0
2525,1685094339503,514.0,439.0
2526,1685094339503,310.0,393.0
2527,1685094339503,395.0,422.0
2528,1685094339536,358.0,440.0
2529,1685094339536,383.0,433.0
2530,1685094339536,330.0,431.0
2531,1685094339567,463.0,457.0
2532,1685094339567,399.0,466.0
2533,1685094339567,502.0,440.0
2534,1685094339567,442.0,464.0
2535,1685094339601,517.0,430.0
2536,1685094339601,487.0,452.0
2537,1685094339601,510.0,427.0
2538,1685094339635,481.0,404.0
2539,1685094339635,485.0,455.0
2540,1685094339635,481.0,403.0
2541,1685094339635,355.0,411.0
2542,1685094339665,492.0,463.0
2543,1685094339665,346.0,427.0
2544,1685094339665,349.0,411.0
2545,1685094339701,335.0,443.0
2546,1685094339701,444.0,448.0
2547,1685094339701,385.0,462.0
2548,1685094339701,502.0,444.0
2549,1685094339726,426.0,459.0
2550,1685094339726,519.0,436.0
2551,1685094339726,471.0,464.0
2552,1685094339726,498.0,427.0
2553,1685094339770,513.0,429.0
2554,1685094339770,499.0,447.0
2555,1685094339770,446.0,389.0
2556,1685094339802,417.0,431.0
2557,1685094339802,488.0,429.0
2558,1685094339802,302.0,396.0
2559,1685094339802,389.0,421.0
2560,1685094339836,370.0,451.0
2561,1685094339836,404.0,438.0
2562,1685094339836,335.0,442.0
2563,1685094339868,457.0,442.0
2564,1685094339868,402.0,471.0
2565,1685094339868,501.0,426.0
2566,1685094339868,441.0,470.0
2567,1685094339902,522.0,430.0
2568,1685094339902,499.0,446.0
2569,1685094339902,491.0,426.0
2570,1685094339933,464.0,409.0
2571,1685094339933,474.0,451.0
2572,1685094339933,465.0,398.0
2573,1685094339933,346.0,414.0
2574,1685094339963,486.0,450.0
2575,1685094339963,352.0,431.0
2576,1685094339963,355.0,420.0
2577,1685094339995,325.0,435.0
2578,1685094339995,443.0,457.0
2579,1685094339995,395.0,463.0
2580,1685094339995,495.0,451.0
2581,1685094340028,424.0,469.0
2582,1685094340028,517.0,424.0
2583,1685094340028,465.0,459.0
2584,1685094340028,495.0,419.0
2585,1685094340071,490.0,431.0
2586,1685094340071,490.0,437.0
2587,1685094340071,454.0,382.0
2588,1685094340103,414.0,436.0
2589,1685094340103,500.0,440.0
2590,1685094340103,305.0,391.0
2591,1685094340103,375.0,429.0
2592,1685094340137,359.0,437.0
2593,1685094340137,408.0,448.0
2594,1685094340137,351.0,436.0
2595,1685094340169,468.0,440.0
2596,1685094340169,405.0,474.0
2597,1685094340169,512.0,432.0
2598,1685094340169,452.0,461.0
2599,1685094340201,513.0,431.0
2600,1685094340201,494.0,435.0
2601,1685094340201,479.0,435.0
2602,1685094340232,463.0,403.0
2603,1685094340232,470.0,449.0
2604,1685094340232,469.0,399.0
2605,1685094340232,341.0,408.0
2606,1685094340268,479.0,455.0
2607,1685094340268,356.0,424.0
2608,1685094340268,364.0,423.0
2609,1685094340298,338.0,437.0
2610,1685094340298,447.0,464.0
2611,1685094340298,388.0,457.0
2612,1685094340298,491.0,441.0
2613,1685094340327,421.0,467.0
2614,1685094340327,519.0,429.0
2615,1685094340327,475.0,450.0
2616,1685094340327,494.0,431.0
2617,1685094340371,492.0,421.0
2618,1685094340371,494.0,448.0
2619,1685094340371,446.0,388.0
2620,1685094340403,417.0,442.0
2621,1685094340403,511.0,436.0
2622,1685094340403,315.0,410.0
2623,1685094340403,380.0,416.0
2624,1685094340439,362.0,439.0
2625,1685094340439,409.0,445.0
2626,1685094340439,344.0,437.0
2627,1685094340470,465.0,449.0
2628,1685094340470,415.0,464.0
2629,1685094340470,510.0,430.0
2630,1685094340470,454.0,468.0
2631,1685094340505,521.0,430.0
2632,1685094340505,499.0,451.0
2633,1685094340505,488.0,429.0
2634,1685094340533,451.0,388.0
2635,1685094340533,457.0,442.0
2636,1685094340533,478.0,407.0
2637,1685094340533,328.0,405.0
2638,1685094340566,457.0,450.0
2639,1685094340566,363.0,434.0
2640,1685094340566,359.0,421.0
2641,1685094340597,325.0,434.0
2642,1685094340597,460.0,448.0
2643,1685094340597,402.0,463.0
2644,1685094340597,496.0,443.0
2645,1685094340628,428.0,470.0
2646,1685094340628,511.0,440.0
2647,1685094340628,475.0,454.0
2648,1685094340628,476.0,419.0
2649,1685094340672,488.0,426.0
2650,1685094340672,488.0,442.0
2651,1685094340672,454.0,392.0
2652,1685094340703,408.0,430.0
2653,1685094340703,510.0,451.0
2654,1685094340703,325.0,417.0
2655,1685094340703,374.0,421.0
2656,1685094340738,359.0,442.0
2657,1685094340738,412.0,442.0
2658,1685094340738,344.0,436.0
2659,1685094340770,474.0,442.0
2660,1685094340770,411.0,469.0
2661,1685094340770,506.0,431.0
2662,1685094340770,445.0,461.0
2663,1685094340801,512.0,428.0
2664,1685094340801,498.0,440.0
2665,1685094340801,493.0,433.0
2666,1685094340833,462.0,388.0
2667,1685094340833,457.0,442.0
2668,1685094340833,482.0,418.0
2669,1685094340833,320.0,398.0
2670,1685094340864,445.0,442.0
2671,1685094340864,359.0,436.0
2672,1685094340864,362.0,430.0
2673,1685094340896,325.0,435.0
2674,1685094340896,445.0,448.0
2675,1685094340896,393.0,468.0
2676,1685094340896,496.0,440.0
2677,1685094340927,426.0,463.0
2678,1685094340927,522.0,430.0
2679,1685094340927,485.0,456.0
2680,1685094340927,491.0,424.0
2681,1685094340972,488.0,413.0
2682,1685094340972,492.0,448.0
2683,1685094340972,447.0,382.0
2684,1685094341004,391.0,435.0
2685,1685094341004,507.0,441.0
2686,1685094341004,325.0,420.0
2687,1685094341004,366.0,415.0
2688,1685094341040,341.0,434.0
2689,1685094341040,419.0,459.0
2690,1685094341040,350.0,441.0
2691,1685094341071,479.0,443.0
2692,1685094341071,422.0,469.0
2693,1685094341071,523.0,434.0
2694,1685094341071,455.0,465.0
2695,1685094341103,511.0,429.0
2696,1685094341103,502.0,443.0
2697,1685094341103,490.0,432.0
2698,1685094341134,453.0,389.0
2699,1685094341134,454.0,452.0
2700,1685094341134,482.0,412.0
2701,1685094341134,313.0,398.0
2702,1685094341167,442.0,445.0
2703,1685094341167,358.0,437.0
2704,1685094341167,367.0,430.0
2705,1685094341201,341.0,430.0
2706,1685094341201,458.0,454.0
2707,1685094341201,395.0,463.0
2708,1685094341201,498.0,435.0
2709,1685094341229,421.0,474.0
2710,1685094341229,518.0,426.0
2711,1685094341229,484.0,448.0
2712,1685094341229,483.0,423.0
2713,1685094341273,488.0,407.0
2714,1685094341273,490.0,446.0
2715,1685094341273,455.0,384.0
2716,1685094341304,388.0,427.0
2717,1685094341304,509.0,457.0
2718,1685094341304,342.0,413.0
2719,1685094341304,357.0,423.0
2720,1685094341340,351.0,440.0
2721,1685094341340,423.0,453.0
2722,1685094341340,352.0,449.0
2723,1685094341372,474.0,444.0
2724,1685094341372,422.0,467.0
2725,1685094341372,512.0,431.0
2726,1685094341372,460.0,460.0
2727,1685094341404,512.0,430.0
2728,1685094341404,510.0,446.0
2729,1685094341404,501.0,434.0
2730,1685094341435,454.0,386.0
2731,1685094341435,453.0,445.0
2732,1685094341435,477.0,417.0
2733,1685094341435,301.0,391.0
2734,1685094341468,425.0,432.0
2735,1685094341468,357.0,444.0
2736,1685094341468,367.0,431.0
2737,1685094341498,330.0,441.0
2738,1685094341498,454.0,447.0
2739,1685094341498,400.0,455.0
2740,1685094341498,503.0,443.0
2741,1685094341530,435.0,457.0
2742,1685094341530,526.0,434.0
2743,1685094341530,476.0,455.0
2744,1685094341530,482.0,426.0
2745,1685094341574,487.0,408.0
2746,1685094341574,485.0,444.0
2747,1685094341574,449.0,391.0
2748,1685094341605,379.0,414.0
2749,1685094341605,510.0,461.0
2750,1685094341605,339.0,418.0
2751,1685094341605,353.0,421.0
2752,1685094341640,341.0,432.0
2753,1685094341640,429.0,455.0
2754,1685094341640,366.0,447.0
2755,1685094341672,493.0,448.0
2756,1685094341672,416.0,469.0
2757,1685094341672,509.0,434.0
2758,1685094341672,438.0,432.0
2759,1685094341704,505.0,433.0
2760,1685094341704,502.0,435.0
2761,1685094341704,491.0,434.0
2762,1685094341735,448.0,378.0
2763,1685094341735,449.0,444.0
2764,1685094341735,491.0,412.0
2765,1685094341735,302.0,396.0
2766,1685094341766,409.0,430.0
2767,1685094341766,370.0,441.0
2768,1685094341766,376.0,430.0
2769,1685094341798,344.0,435.0
2770,1685094341798,453.0,451.0
2771,1685094341798,395.0,472.0
2772,1685094341798,503.0,428.0
2773,1685094341829,433.0,465.0
2774,1685094341829,525.0,436.0
2775,1685094341829,489.0,450.0
2776,1685094341829,490.0,427.0
2777,1685094341874,487.0,407.0
2778,1685094341874,487.0,450.0
2779,1685094341874,460.0,394.0
2780,1685094341906,370.0,416.0
2781,1685094341906,503.0,458.0
2782,1685094341906,339.0,427.0
2783,1685094341906,357.0,417.0
2784,1685094341942,355.0,439.0
2785,1685094341942,445.0,454.0
2786,1685094341942,374.0,453.0
2787,1685094341973,497.0,440.0
2788,1685094341973,424.0,467.0
2789,1685094341973,515.0,432.0
2790,1685094341973,466.0,451.0
2791,1685094342005,506.0,434.0
2792,1685094342005,498.0,437.0
2793,1685094342005,480.0,441.0
2794,1685094342037,447.0,376.0
2795,1685094342037,443.0,443.0
2796,1685094342037,493.0,433.0
2797,1685094342037,297.0,391.0
2798,1685094342068,406.0,433.0
2799,1685094342068,360.0,439.0
2800,1685094342068,394.0,435.0
2801,1685094342101,336.0,435.0
2802,1685094342101,456.0,441.0
2803,1685094342101,397.0,466.0
2804,1685094342101,499.0,431.0
2805,1685094342134,433.0,463.0
2806,1685094342134,519.0,424.0
2807,1685094342134,497.0,462.0
2808,1685094342134,482.0,419.0
2809,1685094342175,474.0,415.0
2810,1685094342175,491.0,450.0
2811,1685094342175,474.0,398.0
2812,1685094342207,370.0,423.0
2813,1685094342207,507.0,464.0
2814,1685094342207,344.0,422.0
2815,1685094342207,348.0,416.0
2816,1685094342242,333.0,435.0
2817,1685094342242,439.0,456.0
2818,1685094342242,375.0,460.0
2819,1685094342274,489.0,443.0
2820,1685094342274,419.0,469.0
2821,1685094342274,521.0,429.0
2822,1685094342274,462.0,465.0
2823,1685094342306,501.0,424.0
2824,1685094342306,492.0,430.0
2825,1685094342306,495.0,447.0
2826,1685094342337,453.0,386.0
2827,1685094342337,428.0,432.0
2828,1685094342337,492.0,431.0
2829,1685094342337,305.0,384.0
2830,1685094342369,393.0,428.0
2831,1685094342369,363.0,450.0
2832,1685094342369,389.0,431.0
2833,1685094342400,331.0,429.0
2834,1685094342400,462.0,448.0
2835,1685094342400,403.0,466.0
2836,1685094342400,508.0,433.0
2837,1685094342431,443.0,466.0
2838,1685094342431,520.0,434.0
2839,1685094342431,498.0,451.0
2840,1685094342431,487.0,424.0
2841,1685094342476,473.0,401.0
2842,1685094342476,474.0,442.0
2843,1685094342476,461.0,399.0
2844,1685094342508,361.0,411.0
2845,1685094342508,495.0,455.0
2846,1685094342508,345.0,430.0
2847,1685094342508,351.0,417.0
2848,1685094342543,336.0,435.0
2849,1685094342543,442.0,449.0
2850,1685094342543,375.0,450.0
2851,1685094342574,502.0,448.0
2852,1685094342574,420.0,463.0
2853,1685094342574,517.0,431.0
2854,1685094342574,467.0,463.0
2855,1685094342606,501.0,425.0
2856,1685094342606,495.0,429.0
2857,1685094342606,495.0,436.0
2858,1685094342637,457.0,388.0
2859,1685094342637,425.0,427.0
2860,1685094342637,493.0,433.0
2861,1685094342637,312.0,397.0
2862,1685094342669,386.0,429.0
2863,1685094342669,364.0,438.0
2864,1685094342669,395.0,449.0
2865,1685094342700,344.0,435.0
2866,1685094342700,468.0,448.0
2867,1685094342700,397.0,461.0
2868,1685094342700,514.0,440.0
2869,1685094342736,444.0,463.0
2870,1685094342736,518.0,430.0
2871,1685094342736,498.0,451.0
2872,1685094342736,485.0,416.0
2873,1685094342776,471.0,397.0
2874,1685094342776,479.0,448.0
2875,1685094342776,472.0,403.0
2876,1685094342808,356.0,417.0
2877,1685094342808,482.0,453.0
2878,1685094342808,368.0,433.0
2879,1685094342808,363.0,418.0
2880,1685094342844,338.0,438.0
2881,1685094342844,447.0,460.0
2882,1685094342844,383.0,455.0
2883,1685094342875,491.0,447.0
2884,1685094342875,420.0,467.0
2885,1685094342875,512.0,430.0
2886,1685094342875,472.0,459.0
2887,1685094342906,503.0,423.0
2888,1685094342906,491.0,423.0
2889,1685094342906,490.0,440.0
2890,1685094342938,452.0,387.0
2891,1685094342938,425.0,432.0
2892,1685094342938,512.0,445.0
2893,1685094342938,315.0,400.0
2894,1685094342969,375.0,430.0
2895,1685094342969,352.0,437.0
2896,1685094342969,393.0,447.0
2897,1685094343001,331.0,431.0
2898,1685094343001,466.0,446.0
2899,1685094343001,406.0,466.0
2900,1685094343001,513.0,434.0
2901,1685094343033,447.0,464.0
2902,1685094343033,520.0,435.0
2903,1685094343033,509.0,455.0
2904,1685094343033,490.0,423.0
2905,1685094343077,456.0,394.0
2906,1685094343077,469.0,444.0
2907,1685094343077,471.0,402.0
2908,1685094343109,338.0,406.0
2909,1685094343109,465.0,451.0
2910,1685094343109,359.0,432.0
2911,1685094343109,356.0,420.0
2912,1685094343143,328.0,431.0
2913,1685094343143,459.0,456.0
2914,1685094343143,383.0,462.0
2915,1685094343175,501.0,444.0
2916,1685094343175,430.0,465.0
2917,1685094343175,518.0,434.0
2918,1685094343175,476.0,459.0
2919,1685094343209,495.0,423.0
2920,1685094343209,478.0,413.0
2921,1685094343209,491.0,435.0
2922,1685094343238,447.0,384.0
2923,1685094343238,414.0,428.0
2924,1685094343238,507.0,439.0
2925,1685094343238,323.0,406.0
2926,1685094343269,378.0,420.0
2927,1685094343269,353.0,446.0
2928,1685094343269,407.0,450.0
2929,1685094343301,344.0,440.0
2930,1685094343301,473.0,450.0
2931,1685094343301,405.0,462.0
2932,1685094343301,505.0,438.0
2933,1685094343332,438.0,454.0
2934,1685094343332,508.0,433.0
2935,1685094343332,495.0,442.0
2936,1685094343332,490.0,433.0
2937,1685094343378,462.0,391.0
2938,1685094343378,480.0,444.0
2939,1685094343378,480.0,415.0
2940,1685094343410,334.0,400.0
2941,1685094343410,456.0,449.0
2942,1685094343410,360.0,442.0
2943,1685094343410,360.0,421.0
2944,1685094343444,324.0,435.0
2945,1685094343444,446.0,453.0
2946,1685094343444,381.0,451.0
2947,1685094343476,495.0,445.0
2948,1685094343476,424.0,461.0
2949,1685094343476,515.0,432.0
2950,1685094343476,483.0,460.0
2951,1685094343509,501.0,418.0
2952,1685094343509,496.0,423.0
2953,1685094343509,501.0,450.0
2954,1685094343539,448.0,380.0
2955,1685094343539,404.0,428.0
2956,1685094343539,500.0,445.0
2957,1685094343539,314.0,413.0
2958,1685094343570,367.0,420.0
2959,1685094343570,343.0,443.0
2960,1685094343570,408.0,450.0
2961,1685094343601,343.0,443.0
2962,1685094343601,478.0,443.0
2963,1685094343601,412.0,463.0
2964,1685094343601,506.0,432.0
2965,1685094343633,459.0,462.0
2966,1685094343633,517.0,434.0
2967,1685094343633,504.0,446.0
2968,1685094343633,488.0,428.0
2969,1685094343679,448.0,391.0
2970,1685094343679,462.0,444.0
2971,1685094343679,471.0,405.0
2972,1685094343710,317.0,399.0
2973,1685094343710,503.0,479.0
2974,1685094343710,381.0,423.0
2975,1685094343710,366.0,430.0
2976,1685094343746,332.0,428.0
2977,1685094343746,451.0,453.0
2978,1685094343746,391.0,453.0
2979,1685094343778,499.0,443.0
2980,1685094343778,426.0,470.0
2981,1685094343778,517.0,435.0
2982,1685094343778,474.0,454.0
2983,1685094343810,482.0,419.0
2984,1685094343810,482.0,417.0
2985,1685094343810,493.0,437.0
2986,1685094343841,451.0,397.0
2987,1685094343841,404.0,432.0
2988,1685094343841,518.0,453.0
2989,1685094343841,331.0,408.0
2990,1685094343872,365.0,413.0
2991,1685094343872,354.0,448.0
2992,1685094343872,419.0,455.0
2993,1685094343904,355.0,444.0
2994,1685094343904,467.0,444.0
2995,1685094343904,404.0,469.0
2996,1685094343904,499.0,430.0
2997,1685094343936,451.0,452.0
2998,1685094343936,512.0,423.0
2999,1685094343936,509.0,443.0
3000,1685094343936,505.0,441.0
3001,1685094343978,461.0,387.0
3002,1685094343978,465.0,451.0
3003,1685094343978,485.0,412.0
3004,1685094344010,319.0,400.0
3005,1685094344010,431.0,440.0
3006,1685094344010,356.0,438.0
3007,1685094344010,363.0,428.0
3008,1685094344046,322.0,431.0
3009,1685094344046,438.0,445.0
3010,1685094344046,395.0,470.0
3011,1685094344077,508.0,436.0
3012,1685094344077,437.0,471.0
3013,1685094344077,526.0,432.0
3014,1685094344077,482.0,444.0
3015,1685094344111,494.0,430.0
3016,1685094344111,487.0,407.0
3017,1685094344111,483.0,451.0
3018,1685094344140,449.0,387.0
3019,1685094344140,387.0,422.0
3020,1685094344140,505.0,446.0
3021,1685094344140,330.0,412.0
3022,1685094344172,355.0,424.0
3023,1685094344172,340.0,439.0
3024,1685094344172,434.0,450.0
3025,1685094344207,360.0,444.0
3026,1685094344207,488.0,446.0
3027,1685094344207,420.0,463.0
3028,1685094344207,511.0,432.0
3029,1685094344245,463.0,465.0
3030,1685094344245,513.0,423.0
3031,1685094344245,499.0,437.0
3032,1685094344245,482.0,435.0
3033,1685094344280,445.0,382.0
3034,1685094344280,455.0,444.0
3035,1685094344280,480.0,414.0
3036,1685094344311,302.0,393.0
3037,1685094344311,428.0,440.0
3038,1685094344311,371.0,443.0
3039,1685094344311,376.0,433.0
3040,1685094344346,336.0,435.0
3041,1685094344346,453.0,452.0
3042,1685094344346,397.0,471.0
3043,1685094344378,494.0,438.0
3044,1685094344378,433.0,455.0
3045,1685094344378,516.0,428.0
3046,1685094344378,485.0,451.0
3047,1685094344411,485.0,417.0
3048,1685094344411,485.0,405.0
3049,1685094344411,491.0,453.0
3050,1685094344441,461.0,401.0
3051,1685094344441,388.0,422.0
3052,1685094344441,507.0,457.0
3053,1685094344441,328.0,425.0
3054,1685094344479,361.0,422.0
3055,1685094344479,348.0,440.0
3056,1685094344479,433.0,450.0
3057,1685094344507,363.0,455.0
3058,1685094344507,484.0,442.0
3059,1685094344507,417.0,472.0
3060,1685094344507,515.0,435.0
3061,1685094344536,458.0,459.0
3062,1685094344536,507.0,424.0
3063,1685094344536,501.0,443.0
3064,1685094344536,504.0,436.0
3065,1685094344581,453.0,379.0
3066,1685094344581,445.0,443.0
3067,1685094344581,487.0,416.0
3068,1685094344613,300.0,392.0
3069,1685094344613,416.0,434.0
3070,1685094344613,359.0,433.0
3071,1685094344613,383.0,437.0
3072,1685094344647,327.0,432.0
3073,1685094344647,462.0,458.0
3074,1685094344647,402.0,462.0
3075,1685094344679,501.0,435.0
3076,1685094344679,442.0,464.0
3077,1685094344679,520.0,427.0
3078,1685094344679,524.0,477.0
3079,1685094344711,505.0,421.0
3080,1685094344711,481.0,407.0
3081,1685094344711,490.0,447.0
3082,1685094344744,470.0,394.0
3083,1685094344744,366.0,422.0
3084,1685094344744,501.0,456.0
3085,1685094344744,350.0,417.0
3086,1685094344774,348.0,416.0
3087,1685094344774,343.0,438.0
3088,1685094344774,431.0,452.0
3089,1685094344805,363.0,442.0
3090,1685094344805,493.0,440.0
3091,1685094344805,423.0,467.0
3092,1685094344805,522.0,447.0
3093,1685094344836,465.0,453.0
3094,1685094344836,507.0,428.0
3095,1685094344836,490.0,444.0
3096,1685094344836,487.0,433.0
3097,1685094344881,449.0,393.0
3098,1685094344881,443.0,437.0
3099,1685094344881,486.0,426.0
3100,1685094344912,313.0,397.0
3101,1685094344912,410.0,428.0
3102,1685094344912,367.0,437.0
3103,1685094344912,387.0,433.0
3104,1685094344947,340.0,436.0
3105,1685094344947,463.0,453.0
3106,1685094344947,403.0,459.0
3107,1685094344978,500.0,443.0
3108,1685094344978,427.0,458.0
3109,1685094344978,515.0,435.0
3110,1685094344978,481.0,454.0
3111,1685094345012,481.0,423.0
3112,1685094345012,465.0,405.0
3113,1685094345012,484.0,453.0
3114,1685094345042,463.0,397.0
3115,1685094345042,374.0,416.0
3116,1685094345042,499.0,453.0
3117,1685094345042,352.0,424.0
3118,1685094345073,365.0,417.0
3119,1685094345073,356.0,440.0
3120,1685094345073,440.0,458.0
3121,1685094345105,384.0,454.0
3122,1685094345105,486.0,448.0
3123,1685094345105,413.0,465.0
3124,1685094345105,513.0,433.0
3125,1685094345136,448.0,454.0
3126,1685094345136,495.0,428.0
3127,1685094345136,491.0,431.0
3128,1685094345136,489.0,439.0
3129,1685094345182,449.0,384.0
3130,1685094345182,438.0,436.0
3131,1685094345182,491.0,430.0
3132,1685094345214,315.0,397.0
3133,1685094345214,393.0,419.0
3134,1685094345214,361.0,449.0
3135,1685094345214,391.0,437.0
3136,1685094345250,348.0,438.0
3137,1685094345250,467.0,440.0
3138,1685094345250,393.0,473.0
3139,1685094345281,498.0,426.0
3140,1685094345281,435.0,460.0
3141,1685094345281,519.0,433.0
3142,1685094345281,493.0,449.0
3143,1685094345314,487.0,429.0
3144,1685094345314,466.0,400.0
3145,1685094345314,478.0,444.0
3146,1685094345347,466.0,403.0
3147,1685094345347,356.0,418.0
3148,1685094345347,483.0,450.0
3149,1685094345347,342.0,424.0
3150,1685094345377,360.0,419.0
3151,1685094345377,347.0,436.0
3152,1685094345377,436.0,447.0
3153,1685094345407,383.0,456.0
3154,1685094345407,501.0,454.0
3155,1685094345407,428.0,464.0
3156,1685094345407,529.0,440.0
3157,1685094345439,462.0,456.0
3158,1685094345439,496.0,427.0
3159,1685094345439,488.0,428.0
3160,1685094345439,481.0,445.0
3161,1685094345482,441.0,383.0
3162,1685094345482,416.0,442.0
3163,1685094345482,498.0,440.0
3164,1685094345514,317.0,395.0
3165,1685094345514,389.0,421.0
3166,1685094345514,364.0,441.0
3167,1685094345514,404.0,441.0
3168,1685094345549,352.0,432.0
3169,1685094345549,469.0,448.0
3170,1685094345549,406.0,460.0
3171,1685094345580,500.0,429.0
3172,1685094345580,435.0,465.0
3173,1685094345580,516.0,434.0
3174,1685094345580,487.0,450.0
3175,1685094345613,483.0,435.0
3176,1685094345613,459.0,407.0
3177,1685094345613,472.0,439.0
3178,1685094345644,467.0,405.0
3179,1685094345644,347.0,408.0
3180,1685094345644,480.0,456.0
3181,1685094345644,370.0,427.0
3182,1685094345675,366.0,413.0
3183,1685094345675,346.0,436.0
3184,1685094345675,447.0,464.0
3185,1685094345707,394.0,458.0
3186,1685094345707,496.0,448.0
3187,1685094345707,415.0,469.0
3188,1685094345707,512.0,434.0
3189,1685094345738,457.0,460.0
3190,1685094345738,492.0,426.0
3191,1685094345738,479.0,423.0
3192,1685094345738,486.0,440.0
3193,1685094345782,444.0,389.0
3194,1685094345782,422.0,435.0
3195,1685094345782,515.0,441.0
3196,1685094345815,320.0,396.0
3197,1685094345815,391.0,418.0
3198,1685094345815,371.0,446.0
3199,1685094345815,414.0,443.0
3200,1685094345850,357.0,434.0
3201,1685094345850,459.0,451.0
3202,1685094345850,400.0,462.0
3203,1685094345881,502.0,429.0
3204,1685094345881,435.0,461.0
3205,1685094345881,511.0,431.0
3206,1685094345881,490.0,448.0
3207,1685094345913,478.0,433.0
3208,1685094345913,456.0,395.0
3209,1685094345913,471.0,448.0
3210,1685094345944,470.0,409.0
3211,1685094345944,332.0,404.0
3212,1685094345944,464.0,441.0
3213,1685094345944,370.0,439.0
3214,1685094345975,362.0,420.0
3215,1685094345975,336.0,429.0
3216,1685094345975,451.0,448.0
3217,1685094346007,392.0,456.0
3218,1685094346007,506.0,444.0
3219,1685094346007,438.0,461.0
3220,1685094346007,521.0,441.0
3221,1685094346039,480.0,458.0
3222,1685094346039,483.0,428.0
3223,1685094346039,475.0,422.0
3224,1685094346039,482.0,446.0
3225,1685094346083,428.0,388.0
3226,1685094346083,393.0,426.0
3227,1685094346083,498.0,440.0
3228,1685094346115,317.0,405.0
3229,1685094346115,390.0,418.0
3230,1685094346115,364.0,435.0
3231,1685094346115,431.0,452.0
3232,1685094346150,374.0,446.0
3233,1685094346150,487.0,447.0
3234,1685094346150,417.0,474.0
3235,1685094346181,510.0,432.0
3236,1685094346181,446.0,462.0
3237,1685094346181,499.0,428.0
3238,1685094346181,488.0,444.0
3239,1685094346215,466.0,431.0
3240,1685094346215,432.0,393.0
3241,1685094346215,450.0,443.0
3242,1685094346246,465.0,417.0
3243,1685094346246,330.0,400.0
3244,1685094346246,465.0,448.0
3245,1685094346246,375.0,430.0
3246,1685094346276,394.0,425.0
3247,1685094346276,353.0,432.0
3248,1685094346276,473.0,461.0
3249,1685094346311,404.0,460.0
3250,1685094346311,489.0,443.0
3251,1685094346311,420.0,465.0
3252,1685094346311,498.0,425.0
3253,1685094346340,466.0,460.0
3254,1685094346340,470.0,421.0
3255,1685094346340,468.0,421.0
3256,1685094346340,485.0,440.0
3257,1685094346384,448.0,390.0
3258,1685094346384,399.0,433.0
3259,1685094346384,508.0,450.0
3260,1685094346417,335.0,406.0
3261,1685094346417,381.0,419.0
3262,1685094346417,358.0,439.0
3263,1685094346417,439.0,452.0
3264,1685094346451,357.0,438.0
3265,1685094346451,470.0,437.0
3266,1685094346451,414.0,461.0
3267,1685094346483,506.0,427.0
3268,1685094346483,469.0,459.0
3269,1685094346483,507.0,434.0
3270,1685094346483,505.0,445.0
3271,1685094346514,484.0,439.0
3272,1685094346514,440.0,390.0
3273,1685094346514,448.0,444.0
3274,1685094346550,469.0,419.0
3275,1685094346550,306.0,399.0
3276,1685094346550,436.0,444.0
3277,1685094346550,357.0,436.0
3278,1685094346578,370.0,419.0
3279,1685094346578,339.0,431.0
3280,1685094346578,470.0,450.0
3281,1685094346609,414.0,459.0
3282,1685094346609,511.0,441.0
3283,1685094346609,447.0,455.0
3284,1685094346609,516.0,437.0
3285,1685094346641,485.0,456.0
3286,1685094346641,470.0,421.0
3287,1685094346641,470.0,417.0
3288,1685094346641,472.0,444.0
3289,1685094346685,431.0,396.0
3290,1685094346685,381.0,424.0
3291,1685094346685,494.0,441.0
3292,1685094346702,336.0,400.0
3293,1685094346702,383.0,411.0
3294,1685094346702,359.0,435.0
3295,1685094346702,458.0,452.0
3296,1685094346751,379.0,447.0
3297,1685094346751,497.0,447.0
3298,1685094346751,422.0,466.0
3299,1685094346783,508.0,429.0
3300,1685094346783,457.0,455.0
3301,1685094346783,476.0,429.0
3302,1685094346783,494.0,443.0
3303,1685094346815,468.0,436.0
3304,1685094346815,431.0,392.0
3305,1685094346815,436.0,438.0
3306,1685094346846,472.0,416.0
3307,1685094346846,325.0,396.0
3308,1685094346846,439.0,422.0
3309,1685094346846,378.0,448.0
3310,1685094346877,400.0,422.0
3311,1685094346877,346.0,433.0
3312,1685094346877,470.0,453.0
3313,1685094346909,397.0,465.0
3314,1685094346909,481.0,437.0
3315,1685094346909,429.0,456.0
3316,1685094346909,497.0,436.0
3317,1685094346940,482.0,448.0
3318,1685094346940,472.0,426.0
3319,1685094346940,482.0,412.0
3320,1685094346940,483.0,448.0
3321,1685094346985,443.0,399.0
3322,1685094346985,393.0,418.0
3323,1685094346985,496.0,452.0
3324,1685094347016,352.0,421.0
3325,1685094347016,380.0,415.0
3326,1685094347016,340.0,435.0
3327,1685094347016,453.0,450.0
3328,1685094347052,358.0,453.0
3329,1685094347052,490.0,447.0
3330,1685094347052,434.0,463.0
3331,1685094347084,510.0,437.0
3332,1685094347084,477.0,462.0
3333,1685094347084,490.0,423.0
3334,1685094347084,504.0,441.0
3335,1685094347115,473.0,436.0
3336,1685094347115,428.0,389.0
3337,1685094347115,440.0,442.0
3338,1685094347148,459.0,421.0
3339,1685094347148,298.0,390.0
3340,1685094347148,411.0,431.0
3341,1685094347148,362.0,442.0
3342,1685094347183,406.0,429.0
3343,1685094347183,338.0,434.0
3344,1685094347183,492.0,448.0
3345,1685094347210,417.0,461.0
3346,1685094347210,512.0,437.0
3347,1685094347210,457.0,464.0
3348,1685094347210,507.0,444.0
3349,1685094347242,493.0,451.0
3350,1685094347242,456.0,426.0
3351,1685094347242,460.0,410.0
3352,1685094347242,463.0,447.0
3353,1685094347286,431.0,393.0
3354,1685094347286,367.0,403.0
3355,1685094347286,488.0,447.0
3356,1685094347317,360.0,416.0
3357,1685094347317,384.0,415.0
3358,1685094347317,357.0,439.0
3359,1685094347317,484.0,459.0
3360,1685094347353,386.0,452.0
3361,1685094347353,514.0,454.0
3362,1685094347353,426.0,465.0
3363,1685094347385,495.0,436.0
3364,1685094347385,462.0,457.0
3365,1685094347385,465.0,428.0
3366,1685094347385,482.0,433.0
3367,1685094347417,458.0,431.0
3368,1685094347417,427.0,394.0
3369,1685094347417,441.0,433.0
3370,1685094347451,482.0,425.0
3371,1685094347451,331.0,389.0
3372,1685094347451,428.0,420.0
3373,1685094347451,381.0,452.0
3374,1685094347480,431.0,439.0
3375,1685094347480,343.0,441.0
3376,1685094347480,473.0,451.0
3377,1685094347512,400.0,459.0
3378,1685094347512,482.0,437.0
3379,1685094347512,432.0,454.0
3380,1685094347512,487.0,432.0
3381,1685094347543,492.0,445.0
3382,1685094347543,462.0,425.0
3383,1685094347543,466.0,406.0
3384,1685094347543,487.0,452.0
3385,1685094347586,457.0,406.0
3386,1685094347586,372.0,413.0
3387,1685094347586,488.0,452.0
3388,1685094347618,355.0,428.0
3389,1685094347618,363.0,416.0
3390,1685094347618,335.0,432.0
3391,1685094347618,457.0,449.0
3392,1685094347653,377.0,453.0
3393,1685094347653,503.0,447.0
3394,1685094347653,435.0,467.0
3395,1685094347686,515.0,440.0
3396,1685094347686,487.0,463.0
3397,1685094347686,483.0,430.0
3398,1685094347686,497.0,431.0
3399,1685094347717,476.0,448.0
3400,1685094347717,428.0,386.0
3401,1685094347717,416.0,432.0
3402,1685094347748,464.0,436.0
3403,1685094347748,313.0,393.0
3404,1685094347748,389.0,417.0
3405,1685094347748,371.0,442.0
3406,1685094347778,421.0,433.0
3407,1685094347778,352.0,438.0
3408,1685094347778,504.0,449.0
3409,1685094347812,420.0,460.0
3410,1685094347812,511.0,448.0
3411,1685094347812,463.0,468.0
3412,1685094347812,493.0,436.0
3413,1685094347842,489.0,451.0
3414,1685094347842,454.0,430.0
3415,1685094347842,435.0,401.0
3416,1685094347842,450.0,438.0
3417,1685094347887,435.0,395.0
3418,1685094347887,354.0,406.0
3419,1685094347887,481.0,450.0
3420,1685094347919,370.0,421.0
3421,1685094347919,388.0,417.0
3422,1685094347919,363.0,441.0
3423,1685094347919,491.0,464.0
3424,1685094347954,400.0,461.0
3425,1685094347954,497.0,444.0
3426,1685094347954,424.0,459.0
3427,1685094347986,478.0,432.0
3428,1685094347986,459.0,457.0
3429,1685094347986,462.0,424.0
3430,1685094347986,482.0,426.0
3431,1685094348017,475.0,440.0
3432,1685094348017,432.0,392.0
3433,1685094348017,431.0,428.0
3434,1685094348049,498.0,445.0
3435,1685094348049,338.0,399.0
3436,1685094348049,397.0,418.0
3437,1685094348049,381.0,447.0
3438,1685094348080,434.0,437.0
3439,1685094348080,347.0,443.0
3440,1685094348080,474.0,443.0
3441,1685094348112,402.0,456.0
3442,1685094348112,491.0,434.0
3443,1685094348112,451.0,457.0
3444,1685094348112,488.0,427.0
3445,1685094348143,484.0,440.0
3446,1685094348143,460.0,441.0
3447,1685094348143,453.0,394.0
3448,1685094348143,473.0,454.0
3449,1685094348187,453.0,413.0
3450,1685094348187,344.0,403.0
3451,1685094348187,461.0,453.0
3452,1685094348219,365.0,432.0
3453,1685094348219,374.0,412.0
3454,1685094348219,339.0,433.0
3455,1685094348219,471.0,454.0
3456,1685094348255,402.0,451.0
3457,1685094348255,510.0,446.0
3458,1685094348255,441.0,465.0
3459,1685094348286,511.0,430.0
3460,1685094348286,480.0,461.0
3461,1685094348286,470.0,430.0
3462,1685094348286,473.0,422.0
3463,1685094348318,472.0,441.0
3464,1685094348318,422.0,386.0
3465,1685094348318,400.0,425.0
3466,1685094348349,482.0,437.0
3467,1685094348349,328.0,402.0
3468,1685094348349,383.0,417.0
3469,1685094348349,370.0,439.0
3470,1685094348381,444.0,433.0
3471,1685094348381,363.0,444.0
3472,1685094348381,487.0,447.0
3473,1685094348412,419.0,467.0
3474,1685094348412,511.0,446.0
3475,1685094348412,460.0,464.0
3476,1685094348412,487.0,428.0
3477,1685094348445,498.0,444.0
3478,1685094348445,462.0,432.0
3479,1685094348445,422.0,384.0
3480,1685094348445,448.0,438.0
3481,1685094348488,461.0,417.0
3482,1685094348488,333.0,392.0
3483,1685094348488,453.0,443.0
3484,1685094348520,378.0,437.0
3485,1685094348520,391.0,420.0
3486,1685094348520,341.0,433.0
3487,1685094348520,483.0,452.0
3488,1685094348555,401.0,469.0
3489,1685094348555,490.0,434.0
3490,1685094348555,424.0,462.0
3491,1685094348587,486.0,430.0
3492,1685094348587,467.0,452.0
3493,1685094348587,465.0,420.0
3494,1685094348587,473.0,418.0
3495,1685094348618,489.0,452.0
3496,1685094348618,437.0,387.0
3497,1685094348618,400.0,419.0
3498,1685094348649,503.0,451.0
3499,1685094348649,343.0,407.0
3500,1685094348649,384.0,418.0
3501,1685094348649,360.0,448.0
3502,1685094348682,437.0,443.0
3503,1685094348682,364.0,450.0
3504,1685094348682,479.0,445.0
3505,1685094348713,415.0,462.0
3506,1685094348713,504.0,433.0
3507,1685094348713,458.0,463.0
3508,1685094348713,490.0,427.0
3509,1685094348744,496.0,441.0
3510,1685094348744,473.0,430.0
3511,1685094348744,441.0,397.0
3512,1685094348744,453.0,444.0
3513,1685094348789,472.0,418.0
3514,1685094348789,324.0,390.0
3515,1685094348789,445.0,432.0
3516,1685094348822,367.0,439.0
3517,1685094348822,380.0,420.0
3518,1685094348822,329.0,429.0
3519,1685094348822,469.0,447.0
3520,1685094348856,401.0,461.0
3521,1685094348856,496.0,445.0
3522,1685094348856,442.0,462.0
3523,1685094348888,513.0,437.0
3524,1685094348888,474.0,455.0
3525,1685094348888,479.0,426.0
3526,1685094348888,473.0,410.0
3527,1685094348919,486.0,460.0
3528,1685094348919,436.0,382.0
3529,1685094348919,375.0,418.0
3530,1685094348956,496.0,446.0
3531,1685094348956,343.0,417.0
3532,1685094348956,373.0,413.0
3533,1685094348956,362.0,440.0
3534,1685094348985,450.0,443.0
3535,1685094348985,374.0,444.0
3536,1685094348985,503.0,453.0
3537,1685094349015,432.0,468.0
3538,1685094349015,511.0,443.0
3539,1685094349015,463.0,467.0
3540,1685094349015,486.0,433.0
3541,1685094349045,487.0,444.0
3542,1685094349045,466.0,439.0
3543,1685094349045,417.0,380.0
3544,1685094349045,431.0,435.0
3545,1685094349090,471.0,422.0
3546,1685094349090,315.0,393.0
3547,1685094349090,433.0,426.0
3548,1685094349121,385.0,442.0
3549,1685094349121,410.0,431.0
3550,1685094349121,356.0,433.0
3551,1685094349121,478.0,454.0
3552,1685094349157,397.0,461.0
3553,1685094349157,490.0,434.0
3554,1685094349157,423.0,460.0
3555,1685094349188,492.0,433.0
3556,1685094349188,469.0,448.0
3557,1685094349188,468.0,427.0
3558,1685094349188,460.0,409.0
3559,1685094349220,476.0,446.0
3560,1685094349220,450.0,396.0
3561,1685094349220,395.0,417.0
3562,1685094349254,518.0,454.0
3563,1685094349254,357.0,421.0
3564,1685094349254,384.0,424.0
3565,1685094349254,359.0,439.0
3566,1685094349290,447.0,449.0
3567,1685094349290,372.0,454.0
3568,1685094349290,487.0,453.0
3569,1685094349313,424.0,464.0
3570,1685094349313,495.0,426.0
3571,1685094349313,453.0,465.0
3572,1685094349313,491.0,424.0
3573,1685094349345,490.0,437.0
3574,1685094349345,481.0,442.0
3575,1685094349345,439.0,389.0
3576,1685094349345,439.0,441.0
3577,1685094349391,487.0,428.0
3578,1685094349391,306.0,396.0
3579,1685094349391,408.0,424.0
3580,1685094349422,376.0,442.0
3581,1685094349422,397.0,435.0
3582,1685094349422,341.0,440.0
3583,1685094349422,469.0,444.0
3584,1685094349457,412.0,464.0
3585,1685094349457,510.0,440.0
3586,1685094349457,439.0,459.0
3587,1685094349489,515.0,434.0
3588,1685094349489,486.0,453.0
3589,1685094349489,468.0,429.0
3590,1685094349489,464.0,410.0
3591,1685094349520,465.0,441.0
3592,1685094349520,442.0,394.0
3593,1685094349520,353.0,409.0
3594,1685094349551,490.0,457.0
3595,1685094349551,353.0,422.0
3596,1685094349551,373.0,420.0
3597,1685094349551,356.0,434.0
3598,1685094349585,467.0,451.0
3599,1685094349585,386.0,454.0
3600,1685094349585,505.0,446.0
3601,1685094349619,429.0,470.0
3602,1685094349619,511.0,431.0
3603,1685094349619,457.0,458.0
3604,1685094349619,480.0,431.0
3605,1685094349646,488.0,442.0
3606,1685094349646,469.0,436.0
3607,1685094349646,439.0,389.0
3608,1685094349646,430.0,437.0
3609,1685094349691,493.0,429.0
3610,1685094349691,316.0,395.0
3611,1685094349691,420.0,429.0
3612,1685094349723,384.0,445.0
3613,1685094349723,413.0,435.0
3614,1685094349723,358.0,431.0
3615,1685094349723,473.0,447.0
3616,1685094349758,402.0,466.0
3617,1685094349758,493.0,440.0
3618,1685094349758,435.0,462.0
3619,1685094349789,500.0,427.0
3620,1685094349789,469.0,451.0
3621,1685094349789,472.0,424.0
3622,1685094349789,458.0,400.0
3623,1685094349821,468.0,457.0
3624,1685094349821,467.0,394.0
3625,1685094349821,355.0,413.0
3626,1685094349852,493.0,454.0
3627,1685094349852,366.0,428.0
3628,1685094349852,376.0,413.0
3629,1685094349852,358.0,438.0
3630,1685094349883,465.0,458.0
3631,1685094349883,403.0,458.0
3632,1685094349883,499.0,446.0
3633,1685094349914,417.0,465.0
3634,1685094349914,499.0,436.0
3635,1685094349914,461.0,455.0
3636,1685094349914,478.0,432.0
3637,1685094349948,477.0,422.0
3638,1685094349948,477.0,439.0
3639,1685094349948,443.0,388.0
3640,1685094349948,419.0,440.0
3641,1685094349992,496.0,436.0
3642,1685094349992,320.0,403.0
3643,1685094349992,394.0,421.0
3644,1685094350012,372.0,444.0
3645,1685094350012,422.0,435.0
3646,1685094350012,349.0,437.0
3647,1685094350012,474.0,441.0
3648,1685094350059,408.0,463.0
3649,1685094350059,500.0,442.0
3650,1685094350059,445.0,460.0
3651,1685094350091,513.0,429.0
3652,1685094350091,490.0,451.0
3653,1685094350091,481.0,435.0
3654,1685094350091,452.0,401.0
3655,1685094350122,464.0,451.0
3656,1685094350122,464.0,415.0
3657,1685094350122,333.0,397.0
3658,1685094350153,478.0,452.0
3659,1685094350153,361.0,428.0
3660,1685094350153,375.0,420.0
3661,1685094350153,344.0,432.0
3662,1685094350186,464.0,458.0
3663,1685094350186,401.0,465.0
3664,1685094350186,511.0,447.0
3665,1685094350218,432.0,461.0
3666,1685094350218,513.0,440.0
3667,1685094350218,474.0,455.0
3668,1685094350218,479.0,421.0
3669,1685094350252,482.0,427.0
3670,1685094350252,475.0,440.0
3671,1685094350252,421.0,382.0
3672,1685094350252,403.0,429.0
3673,1685094350293,495.0,432.0
3674,1685094350293,319.0,402.0
3675,1685094350293,393.0,415.0
3676,1685094350311,374.0,449.0
3677,1685094350311,445.0,442.0
3678,1685094350311,365.0,449.0
3679,1685094350311,483.0,449.0
3680,1685094350359,414.0,469.0
3681,1685094350359,498.0,437.0
3682,1685094350359,450.0,462.0
3683,1685094350392,490.0,430.0
3684,1685094350392,479.0,452.0
3685,1685094350392,468.0,436.0
3686,1685094350392,436.0,391.0
3687,1685094350425,459.0,444.0
3688,1685094350425,469.0,407.0
3689,1685094350425,342.0,401.0
3690,1685094350453,470.0,452.0
3691,1685094350453,375.0,432.0
3692,1685094350453,388.0,431.0
3693,1685094350453,348.0,436.0
3694,1685094350485,467.0,456.0
3695,1685094350485,399.0,462.0
3696,1685094350485,492.0,443.0
3697,1685094350516,415.0,460.0
3698,1685094350516,497.0,427.0
3699,1685094350516,472.0,456.0
3700,1685094350516,464.0,418.0
3701,1685094350547,480.0,418.0
3702,1685094350547,480.0,443.0
3703,1685094350547,449.0,389.0
3704,1685094350547,413.0,427.0
3705,1685094350593,512.0,450.0
3706,1685094350593,333.0,411.0
3707,1685094350593,386.0,414.0
3708,1685094350625,361.0,447.0
3709,1685094350625,433.0,443.0
3710,1685094350625,361.0,438.0
3711,1685094350625,481.0,449.0
3712,1685094350659,422.0,455.0
3713,1685094350659,504.0,438.0
3714,1685094350659,462.0,464.0
3715,1685094350691,507.0,442.0
3716,1685094350691,501.0,445.0
3717,1685094350691,473.0,436.0
3718,1685094350691,437.0,399.0
3719,1685094350722,441.0,442.0
3720,1685094350722,450.0,407.0
3721,1685094350722,315.0,396.0
3722,1685094350753,433.0,437.0
3723,1685094350753,367.0,428.0
3724,1685094350753,389.0,432.0
3725,1685094350753,355.0,422.0
3726,1685094350785,480.0,453.0
3727,1685094350785,416.0,462.0
3728,1685094350785,513.0,442.0
3729,1685094350816,436.0,464.0
3730,1685094350816,507.0,446.0
3731,1685094350816,484.0,452.0
3732,1685094350816,461.0,430.0
3733,1685094350847,455.0,417.0
3734,1685094350847,461.0,438.0
3735,1685094350847,426.0,393.0
3736,1685094350847,393.0,419.0
3737,1685094350893,498.0,448.0
3738,1685094350893,356.0,414.0
3739,1685094350893,392.0,415.0
3740,1685094350925,375.0,442.0
3741,1685094350925,461.0,450.0
3742,1685094350925,368.0,450.0
3743,1685094350925,494.0,453.0
3744,1685094350960,411.0,465.0
3745,1685094350960,488.0,438.0
3746,1685094350960,436.0,452.0
3747,1685094350992,481.0,427.0
3748,1685094350992,485.0,439.0
3749,1685094350992,471.0,430.0
3750,1685094350992,437.0,397.0
3751,1685094351025,456.0,449.0
3752,1685094351025,481.0,419.0
3753,1685094351025,328.0,391.0
3754,1685094351055,434.0,436.0
3755,1685094351055,379.0,438.0
3756,1685094351055,391.0,429.0
3757,1685094351055,342.0,439.0
3758,1685094351086,470.0,446.0
3759,1685094351086,395.0,471.0
3760,1685094351086,491.0,439.0
3761,1685094351118,419.0,457.0
3762,1685094351118,503.0,433.0
3763,1685094351118,486.0,453.0
3764,1685094351118,467.0,426.0
3765,1685094351149,477.0,421.0
3766,1685094351149,484.0,456.0
3767,1685094351149,440.0,400.0
3768,1685094351149,381.0,423.0
3769,1685094351196,493.0,452.0
3770,1685094351196,347.0,418.0
3771,1685094351196,368.0,414.0
3772,1685094351227,353.0,436.0
3773,1685094351227,431.0,445.0
3774,1685094351227,369.0,453.0
3775,1685094351227,497.0,444.0
3776,1685094351263,423.0,464.0
3777,1685094351263,508.0,442.0
3778,1685094351263,470.0,464.0
3779,1685094351294,496.0,433.0
3780,1685094351294,510.0,442.0
