Sample Number (10000 samples per second),UNIX Timestamp (Milliseconds since 1970-01-01),C1 (),C2 ()
0,1685095396102,509.0,440.0
1,1685095396109,524.0,463.0
2,1685095396109,516.0,469.0
3,1685095396109,497.0,463.0
4,1685095396109,478.0,449.0
5,1685095396109,469.0,436.0
6,1685095396109,473.0,428.0
7,1685095396109,378.0,411.0
8,1685095396109,397.0,449.0
9,1685095396109,427.0,436.0
10,1685095396109,400.0,485.0
11,1685095396110,460.0,440.0
12,1685095396110,399.0,467.0
13,1685095396110,477.0,425.0
14,1685095396110,434.0,451.0
15,1685095396110,468.0,437.0
16,1685095396110,462.0,403.0
17,1685095396110,508.0,464.0
18,1685095396110,392.0,391.0
19,1685095396110,496.0,417.0
20,1685095396110,489.0,463.0
21,1685095396110,406.0,394.0
22,1685095396110,396.0,402.0
23,1685095396110,418.0,436.0
24,1685095396110,389.0,424.0
25,1685095396110,376.0,459.0
26,1685095396110,430.0,438.0
27,1685095396110,389.0,469.0
28,1685095396110,466.0,437.0
29,1685095396110,411.0,465.0
30,1685095396110,487.0,441.0
31,1685095396110,473.0,441.0
32,1685095396110,484.0,452.0
33,1685095396110,426.0,384.0
34,1685095396110,533.0,462.0
35,1685095396110,419.0,436.0
36,1685095396110,412.0,381.0
37,1685095396110,466.0,425.0
38,1685095396110,415.0,421.0
39,1685095396110,362.0,389.0
40,1685095396110,389.0,441.0
41,1685095396110,414.0,441.0
42,1685095396110,396.0,480.0
43,1685095396110,461.0,447.0
44,1685095396110,391.0,473.0
45,1685095396110,484.0,437.0
46,1685095396110,443.0,462.0
47,1685095396110,474.0,429.0
48,1685095396110,476.0,417.0
49,1685095396110,512.0,464.0
50,1685095396110,395.0,373.0
51,1685095396110,504.0,423.0
52,1685095396110,475.0,461.0
53,1685095396110,391.0,386.0
54,1685095396110,408.0,398.0
55,1685095396110,424.0,442.0
56,1685095396110,388.0,431.0
57,1685095396110,384.0,458.0
58,1685095396110,427.0,438.0
59,1685095396110,399.0,476.0
60,1685095396110,471.0,438.0
61,1685095396110,412.0,462.0
62,1685095396110,486.0,429.0
63,1685095396110,454.0,437.0
64,1685095396110,482.0,443.0
65,1685095396110,435.0,379.0
66,1685095396110,525.0,464.0
67,1685095396110,411.0,423.0
68,1685095396110,441.0,391.0
69,1685095396110,480.0,455.0
70,1685095396110,421.0,421.0
71,1685095396110,377.0,398.0
72,1685095396110,407.0,437.0
73,1685095396110,422.0,445.0
74,1685095396110,397.0,472.0
75,1685095396110,452.0,434.0
76,1685095396110,389.0,471.0
77,1685095396110,469.0,426.0
78,1685095396110,419.0,461.0
79,1685095396110,475.0,419.0
80,1685095396110,463.0,412.0
81,1685095396110,503.0,459.0
82,1685095396110,409.0,397.0
83,1685095396110,525.0,442.0
84,1685095396110,469.0,467.0
85,1685095396110,396.0,393.0
86,1685095396110,423.0,399.0
87,1685095396110,424.0,436.0
88,1685095396110,374.0,420.0
89,1685095396110,367.0,443.0
90,1685095396110,417.0,441.0
91,1685095396110,383.0,480.0
92,1685095396110,459.0,435.0
93,1685095396110,406.0,477.0
94,1685095396110,493.0,443.0
95,1685095396110,469.0,451.0
96,1685095396110,487.0,439.0
97,1685095396110,461.0,384.0
98,1685095396110,529.0,459.0
99,1685095396110,396.0,390.0
100,1685095396110,456.0,407.0
101,1685095396110,483.0,451.0
102,1685095396110,408.0,420.0
103,1685095396110,374.0,398.0
104,1685095396110,392.0,432.0
105,1685095396110,403.0,440.0
106,1685095396110,378.0,463.0
107,1685095396110,454.0,451.0
108,1685095396110,396.0,475.0
109,1685095396110,485.0,439.0
110,1685095396110,426.0,458.0
111,1685095396110,483.0,430.0
112,1685095396110,483.0,434.0
113,1685095396110,478.0,456.0
114,1685095396110,407.0,371.0
115,1685095396110,515.0,441.0
116,1685095396110,448.0,446.0
117,1685095396110,405.0,378.0
118,1685095396110,439.0,415.0
119,1685095396110,423.0,439.0
120,1685095396110,376.0,417.0
121,1685095396110,375.0,442.0
122,1685095396110,430.0,454.0
123,1685095396110,393.0,457.0
124,1685095396110,461.0,439.0
125,1685095396110,394.0,459.0
126,1685095396110,482.0,432.0
127,1685095396110,442.0,451.0
128,1685095396110,466.0,437.0
129,1685095396110,456.0,389.0
130,1685095396110,532.0,477.0
131,1685095396110,397.0,393.0
132,1685095396110,490.0,414.0
133,1685095396110,498.0,467.0
134,1685095396110,404.0,396.0
135,1685095396110,388.0,402.0
136,1685095396110,416.0,437.0
137,1685095396110,406.0,436.0
138,1685095396110,373.0,458.0
139,1685095396110,440.0,446.0
140,1685095396110,385.0,469.0
141,1685095396110,468.0,436.0
142,1685095396110,416.0,457.0
143,1685095396110,484.0,433.0
144,1685095396110,474.0,436.0
145,1685095396110,487.0,449.0
146,1685095396110,424.0,373.0
147,1685095396110,527.0,445.0
148,1685095396110,436.0,433.0
149,1685095396110,410.0,386.0
150,1685095396110,454.0,421.0
151,1685095396110,420.0,435.0
152,1685095396110,361.0,399.0
153,1685095396110,367.0,432.0
154,1685095396116,414.0,447.0
155,1685095396116,379.0,475.0
156,1685095396116,460.0,444.0
157,1685095396116,393.0,470.0
158,1685095396116,486.0,442.0
159,1685095396116,446.0,457.0
160,1685095396116,486.0,439.0
161,1685095396116,475.0,396.0
162,1685095396116,518.0,472.0
163,1685095396116,395.0,389.0
164,1685095396116,494.0,408.0
165,1685095396116,487.0,458.0
166,1685095396116,389.0,398.0
167,1685095396116,390.0,393.0
168,1685095396116,399.0,436.0
169,1685095396116,390.0,426.0
170,1685095396116,372.0,464.0
171,1685095396116,440.0,447.0
172,1685095396116,397.0,482.0
173,1685095396116,489.0,449.0
174,1685095396116,416.0,469.0
175,1685095396116,488.0,432.0
176,1685095396116,476.0,435.0
177,1685095396116,485.0,450.0
178,1685095396116,425.0,370.0
179,1685095396116,527.0,452.0
180,1685095396116,406.0,413.0
181,1685095396116,417.0,386.0
182,1685095396116,466.0,432.0
183,1685095396116,405.0,421.0
184,1685095396116,382.0,410.0
185,1685095396116,397.0,447.0
186,1685095396116,430.0,448.0
187,1685095396116,401.0,480.0
188,1685095396116,452.0,441.0
189,1685095396116,384.0,469.0
190,1685095396116,480.0,435.0
191,1685095396116,430.0,459.0
192,1685095396116,470.0,427.0
193,1685095396116,464.0,413.0
194,1685095396116,508.0,468.0
195,1685095396116,398.0,382.0
196,1685095396116,578.0,462.0
197,1685095396116,503.0,458.0
198,1685095396116,392.0,395.0
199,1685095396116,413.0,404.0
200,1685095396116,431.0,453.0
201,1685095396116,391.0,437.0
202,1685095396116,367.0,442.0
203,1685095396116,432.0,440.0
204,1685095396116,382.0,476.0
205,1685095396119,460.0,431.0
206,1685095396119,403.0,458.0
207,1685095396119,485.0,442.0
208,1685095396119,468.0,446.0
209,1685095396119,480.0,447.0
210,1685095396119,445.0,390.0
211,1685095396119,539.0,472.0
212,1685095396119,421.0,415.0
213,1685095396119,448.0,396.0
214,1685095396119,475.0,443.0
215,1685095396119,404.0,407.0
216,1685095396119,360.0,399.0
217,1685095396119,380.0,420.0
218,1685095396119,400.0,438.0
219,1685095396119,377.0,474.0
220,1685095396119,452.0,442.0
221,1685095396119,399.0,477.0
222,1685095396119,491.0,447.0
223,1685095396119,445.0,463.0
224,1685095396119,496.0,443.0
225,1685095396119,481.0,414.0
226,1685095396119,501.0,450.0
227,1685095396119,402.0,379.0
228,1685095396119,506.0,424.0
229,1685095396119,460.0,454.0
230,1685095396119,391.0,388.0
231,1685095396119,411.0,399.0
232,1685095396119,418.0,438.0
233,1685095396119,371.0,427.0
234,1685095396119,374.0,456.0
235,1685095396119,438.0,458.0
236,1685095396119,394.0,477.0
237,1685095396121,474.0,438.0
238,1685095396121,401.0,474.0
239,1685095396121,485.0,433.0
240,1685095396121,458.0,447.0
241,1685095396121,474.0,433.0
242,1685095396121,449.0,386.0
243,1685095396121,521.0,464.0
244,1685095396121,393.0,402.0
245,1685095396121,456.0,398.0
246,1685095396121,485.0,456.0
247,1685095396121,421.0,429.0
248,1685095396121,382.0,401.0
249,1685095396121,404.0,436.0
250,1685095396121,424.0,448.0
251,1685095396121,382.0,461.0
252,1685095396121,450.0,443.0
253,1685095396121,401.0,472.0
254,1685095396121,474.0,430.0
255,1685095396121,411.0,457.0
256,1685095396121,472.0,436.0
257,1685095396121,471.0,429.0
258,1685095396121,482.0,460.0
259,1685095396121,409.0,384.0
260,1685095396121,522.0,452.0
261,1685095396121,461.0,438.0
262,1685095396121,395.0,382.0
263,1685095396121,442.0,416.0
264,1685095396121,425.0,440.0
265,1685095396121,378.0,405.0
266,1685095396121,380.0,445.0
267,1685095396121,425.0,440.0
268,1685095396121,384.0,469.0
269,1685095396121,457.0,436.0
270,1685095396121,398.0,466.0
271,1685095396121,484.0,432.0
272,1685095396121,456.0,462.0
273,1685095396121,478.0,444.0
274,1685095396121,466.0,396.0
275,1685095396121,527.0,472.0
276,1685095396121,403.0,398.0
277,1685095396121,476.0,404.0
278,1685095396121,487.0,457.0
279,1685095396121,400.0,395.0
280,1685095396121,379.0,394.0
281,1685095396121,406.0,430.0
282,1685095396121,394.0,435.0
283,1685095396121,373.0,457.0
284,1685095396121,445.0,457.0
285,1685095396121,406.0,489.0
286,1685095396121,486.0,441.0
287,1685095396121,426.0,469.0
288,1685095396121,491.0,427.0
289,1685095396121,478.0,441.0
290,1685095396121,477.0,452.0
291,1685095396121,407.0,369.0
292,1685095396121,516.0,448.0
293,1685095396121,426.0,438.0
294,1685095396121,393.0,380.0
295,1685095396121,442.0,422.0
296,1685095396121,413.0,432.0
297,1685095396121,374.0,412.0
298,1685095396121,384.0,439.0
299,1685095396121,432.0,443.0
300,1685095396121,402.0,474.0
301,1685095396121,465.0,443.0
302,1685095396121,395.0,468.0
303,1685095396121,481.0,430.0
304,1685095396121,438.0,448.0
305,1685095396121,463.0,431.0
306,1685095396121,452.0,393.0
307,1685095396121,511.0,472.0
308,1685095396121,387.0,388.0
309,1685095396121,491.0,418.0
310,1685095396121,497.0,459.0
311,1685095396121,407.0,399.0
312,1685095396121,394.0,396.0
313,1685095396121,420.0,446.0
314,1685095396121,407.0,435.0
315,1685095396121,379.0,459.0
316,1685095396121,448.0,442.0
317,1685095396121,388.0,473.0
318,1685095396121,464.0,430.0
319,1685095396121,408.0,464.0
320,1685095396121,487.0,432.0
321,1685095396121,470.0,445.0
322,1685095396121,478.0,451.0
323,1685095396121,424.0,377.0
324,1685095396121,535.0,467.0
325,1685095396121,418.0,416.0
326,1685095396121,415.0,386.0
327,1685095396121,461.0,431.0
328,1685095396121,418.0,419.0
329,1685095396121,370.0,412.0
330,1685095396121,383.0,435.0
331,1685095396121,413.0,434.0
332,1685095396121,382.0,476.0
333,1685095396121,448.0,446.0
334,1685095396121,397.0,473.0
335,1685095396121,490.0,447.0
336,1685095396121,444.0,464.0
337,1685095396121,486.0,436.0
338,1685095396121,472.0,427.0
339,1685095396121,508.0,461.0
340,1685095396121,391.0,383.0
341,1685095396125,503.0,427.0
342,1685095396125,473.0,454.0
343,1685095396125,394.0,389.0
344,1685095396125,406.0,397.0
345,1685095396125,412.0,421.0
346,1685095396125,391.0,431.0
347,1685095396125,377.0,452.0
348,1685095396125,434.0,453.0
349,1685095396125,381.0,481.0
350,1685095396125,470.0,448.0
351,1685095396125,411.0,468.0
352,1685095396125,492.0,441.0
353,1685095396125,462.0,445.0
354,1685095396125,480.0,449.0
355,1685095396125,432.0,385.0
356,1685095396125,519.0,460.0
357,1685095396125,402.0,421.0
358,1685095396125,434.0,393.0
359,1685095396125,472.0,433.0
360,1685095396125,405.0,422.0
361,1685095396125,375.0,396.0
362,1685095396125,400.0,438.0
363,1685095396125,429.0,451.0
364,1685095396125,383.0,461.0
365,1685095396125,462.0,455.0
366,1685095396125,394.0,456.0
367,1685095396125,478.0,440.0
368,1685095396125,428.0,457.0
369,1685095396125,468.0,432.0
370,1685095396125,470.0,427.0
371,1685095396125,495.0,460.0
372,1685095396125,401.0,384.0
373,1685095396125,508.0,442.0
374,1685095396125,474.0,457.0
375,1685095396125,401.0,393.0
376,1685095396125,421.0,404.0
377,1685095396125,420.0,439.0
378,1685095396125,394.0,430.0
379,1685095396125,381.0,453.0
380,1685095396125,432.0,439.0
381,1685095396125,388.0,478.0
382,1685095396125,455.0,435.0
383,1685095396125,394.0,463.0
384,1685095396125,489.0,445.0
385,1685095396125,458.0,449.0
386,1685095396125,470.0,428.0
387,1685095396125,454.0,398.0
388,1685095396125,528.0,473.0
389,1685095396125,414.0,419.0
390,1685095396125,460.0,393.0
391,1685095396125,474.0,450.0
392,1685095396125,407.0,416.0
393,1685095396125,370.0,392.0
394,1685095396125,396.0,440.0
395,1685095396125,408.0,442.0
396,1685095396125,380.0,468.0
397,1685095396125,463.0,445.0
398,1685095396125,396.0,471.0
399,1685095396125,485.0,446.0
400,1685095396125,432.0,465.0
401,1685095396125,491.0,439.0
402,1685095396125,471.0,429.0
403,1685095396125,492.0,451.0
404,1685095396125,408.0,381.0
405,1685095396125,514.0,435.0
406,1685095396125,453.0,440.0
407,1685095396125,385.0,392.0
408,1685095396125,432.0,409.0
409,1685095396125,410.0,438.0
410,1685095396125,377.0,422.0
411,1685095396125,360.0,444.0
412,1685095396125,433.0,450.0
413,1685095396125,383.0,485.0
414,1685095396125,471.0,441.0
415,1685095396125,400.0,471.0
416,1685095396125,496.0,443.0
417,1685095396125,456.0,458.0
418,1685095396125,467.0,428.0
419,1685095396125,466.0,403.0
420,1685095396125,525.0,466.0
421,1685095396125,388.0,389.0
422,1685095396125,464.0,409.0
423,1685095396125,488.0,459.0
424,1685095396125,408.0,414.0
425,1685095396125,384.0,402.0
426,1685095396125,416.0,437.0
427,1685095396125,410.0,447.0
428,1685095396125,376.0,461.0
429,1685095396125,462.0,449.0
430,1685095396125,381.0,469.0
431,1685095396125,484.0,440.0
432,1685095396125,413.0,458.0
433,1685095396125,473.0,435.0
434,1685095396125,477.0,430.0
435,1685095396125,480.0,447.0
436,1685095396125,407.0,371.0
437,1685095396125,527.0,456.0
438,1685095396125,441.0,422.0
439,1685095396125,402.0,386.0
440,1685095396125,445.0,418.0
441,1685095396125,413.0,427.0
442,1685095396125,377.0,420.0
443,1685095396125,376.0,438.0
444,1685095396125,429.0,449.0
445,1685095396125,377.0,472.0
446,1685095396125,455.0,439.0
447,1685095396125,383.0,467.0
448,1685095396125,487.0,447.0
449,1685095396125,448.0,444.0
450,1685095396125,463.0,444.0
451,1685095396125,465.0,411.0
452,1685095396125,525.0,468.0
453,1685095396125,395.0,388.0
454,1685095396125,491.0,414.0
455,1685095396125,496.0,467.0
456,1685095396125,403.0,402.0
457,1685095396125,387.0,397.0
458,1685095396125,405.0,424.0
459,1685095396125,388.0,432.0
460,1685095396125,368.0,457.0
461,1685095396125,443.0,443.0
462,1685095396125,389.0,477.0
463,1685095396125,490.0,447.0
464,1685095396125,419.0,465.0
465,1685095396125,496.0,440.0
466,1685095396125,489.0,442.0
467,1685095396125,485.0,438.0
468,1685095396125,422.0,366.0
469,1685095396125,535.0,461.0
470,1685095396125,418.0,416.0
471,1685095396125,407.0,383.0
472,1685095396125,456.0,420.0
473,1685095396125,411.0,427.0
474,1685095396125,361.0,398.0
475,1685095396125,380.0,444.0
476,1685095396125,425.0,443.0
477,1685095396125,383.0,478.0
478,1685095396125,472.0,446.0
479,1685095396125,396.0,466.0
480,1685095396125,493.0,439.0
481,1685095396125,449.0,465.0
482,1685095396125,474.0,428.0
483,1685095396125,465.0,407.0
484,1685095396125,507.0,466.0
485,1685095396125,396.0,379.0
486,1685095396125,496.0,424.0
487,1685095396125,479.0,452.0
488,1685095396125,392.0,400.0
489,1685095396125,399.0,402.0
490,1685095396125,418.0,434.0
491,1685095396125,404.0,442.0
492,1685095396125,374.0,462.0
493,1685095396125,443.0,449.0
494,1685095396125,390.0,484.0
495,1685095396125,480.0,435.0
496,1685095396125,407.0,457.0
497,1685095396125,483.0,431.0
498,1685095396125,466.0,441.0
499,1685095396125,475.0,446.0
500,1685095396125,426.0,383.0
501,1685095396125,530.0,463.0
502,1685095396125,412.0,417.0
503,1685095396125,425.0,401.0
504,1685095396125,477.0,426.0
505,1685095396125,406.0,416.0
506,1685095396125,363.0,403.0
507,1685095396125,384.0,440.0
508,1685095396125,420.0,440.0
509,1685095396125,375.0,482.0
510,1685095396125,464.0,440.0
511,1685095396125,384.0,472.0
512,1685095396125,490.0,429.0
513,1685095396125,431.0,469.0
514,1685095396125,478.0,425.0
515,1685095396125,477.0,420.0
516,1685095396125,504.0,462.0
517,1685095396125,400.0,384.0
518,1685095396125,509.0,437.0
519,1685095396125,473.0,451.0
520,1685095396125,394.0,395.0
521,1685095396125,364.0,375.0
522,1685095396125,405.0,436.0
523,1685095396125,383.0,425.0
524,1685095396125,355.0,433.0
525,1685095396125,430.0,448.0
526,1685095396125,382.0,472.0
527,1685095396125,474.0,444.0
528,1685095396125,406.0,460.0
529,1685095396125,498.0,430.0
530,1685095396125,474.0,453.0
531,1685095396125,479.0,443.0
532,1685095396125,449.0,388.0
533,1685095396125,522.0,456.0
534,1685095396125,394.0,404.0
535,1685095396125,441.0,394.0
536,1685095396125,487.0,452.0
537,1685095396125,407.0,429.0
538,1685095396125,366.0,400.0
539,1685095396125,388.0,439.0
540,1685095396125,418.0,450.0
541,1685095396125,389.0,465.0
542,1685095396125,474.0,464.0
543,1685095396125,391.0,472.0
544,1685095396125,486.0,443.0
545,1685095396125,430.0,465.0
546,1685095396125,474.0,431.0
547,1685095396125,474.0,430.0
548,1685095396125,489.0,459.0
549,1685095396125,399.0,369.0
550,1685095396125,507.0,436.0
551,1685095396125,467.0,453.0
552,1685095396125,387.0,377.0
553,1685095396125,421.0,414.0
554,1685095396125,425.0,434.0
555,1685095396125,390.0,423.0
556,1685095396125,371.0,456.0
557,1685095396125,441.0,450.0
558,1685095396125,386.0,471.0
559,1685095396125,473.0,438.0
560,1685095396125,398.0,466.0
561,1685095396125,491.0,434.0
562,1685095396125,448.0,450.0
563,1685095396125,472.0,435.0
564,1685095396125,440.0,383.0
565,1685095396125,518.0,472.0
566,1685095396125,399.0,407.0
567,1685095396125,467.0,394.0
568,1685095396125,507.0,474.0
569,1685095396125,412.0,418.0
570,1685095396125,367.0,396.0
571,1685095396125,409.0,433.0
572,1685095396125,416.0,448.0
573,1685095396125,367.0,460.0
574,1685095396125,459.0,450.0
575,1685095396125,387.0,472.0
576,1685095396125,478.0,436.0
577,1685095396125,416.0,460.0
578,1685095396125,490.0,444.0
579,1685095396125,479.0,417.0
580,1685095396125,483.0,458.0
581,1685095396125,415.0,384.0
582,1685095396125,526.0,431.0
583,1685095396125,447.0,448.0
584,1685095396125,393.0,376.0
585,1685095396125,435.0,402.0
586,1685095396125,420.0,444.0
587,1685095396125,363.0,400.0
588,1685095396125,362.0,438.0
589,1685095396125,425.0,434.0
590,1685095396125,380.0,474.0
591,1685095396125,464.0,439.0
592,1685095396125,402.0,472.0
593,1685095396125,498.0,441.0
594,1685095396125,453.0,447.0
595,1685095396125,480.0,439.0
596,1685095396125,465.0,393.0
597,1685095396125,518.0,471.0
598,1685095396125,393.0,389.0
599,1685095396125,474.0,397.0
600,1685095396125,486.0,455.0
601,1685095396125,401.0,406.0
602,1685095396125,376.0,389.0
603,1685095396125,401.0,426.0
604,1685095396125,403.0,433.0
605,1685095396125,378.0,461.0
606,1685095396125,460.0,448.0
607,1685095396125,396.0,475.0
608,1685095396125,491.0,442.0
609,1685095396125,416.0,473.0
610,1685095396125,485.0,429.0
611,1685095396125,469.0,434.0
612,1685095396125,478.0,446.0
613,1685095396125,412.0,368.0
614,1685095396125,518.0,450.0
615,1685095396125,422.0,416.0
616,1685095396125,405.0,388.0
617,1685095396125,457.0,434.0
618,1685095396125,416.0,423.0
619,1685095396125,374.0,409.0
620,1685095396125,379.0,438.0
621,1685095396125,435.0,446.0
622,1685095396125,392.0,475.0
623,1685095396125,469.0,444.0
624,1685095396125,394.0,470.0
625,1685095396125,485.0,423.0
626,1685095396125,435.0,447.0
627,1685095396125,472.0,437.0
628,1685095396125,466.0,401.0
629,1685095396125,515.0,471.0
630,1685095396125,396.0,392.0
631,1685095396125,499.0,429.0
632,1685095396125,503.0,468.0
633,1685095396125,397.0,406.0
634,1685095396125,389.0,398.0
635,1685095396125,421.0,441.0
636,1685095396125,398.0,427.0
637,1685095396125,365.0,452.0
638,1685095396125,433.0,442.0
639,1685095396125,386.0,471.0
640,1685095396125,476.0,432.0
641,1685095396125,411.0,476.0
642,1685095396125,499.0,432.0
643,1685095396125,480.0,448.0
644,1685095396125,492.0,450.0
645,1685095396125,429.0,381.0
646,1685095396125,524.0,454.0
647,1685095396125,414.0,420.0
648,1685095396125,410.0,389.0
649,1685095396125,468.0,437.0
650,1685095396125,409.0,427.0
651,1685095396125,357.0,401.0
652,1685095396125,368.0,430.0
653,1685095396125,425.0,441.0
654,1685095396125,394.0,476.0
655,1685095396125,465.0,444.0
656,1685095396125,401.0,479.0
657,1685095396125,498.0,447.0
658,1685095396125,435.0,454.0
659,1685095396125,488.0,450.0
660,1685095396125,474.0,410.0
661,1685095396125,492.0,448.0
662,1685095396125,393.0,384.0
663,1685095396125,496.0,428.0
664,1685095396125,476.0,461.0
665,1685095396125,384.0,393.0
666,1685095396125,407.0,397.0
667,1685095396125,414.0,445.0
668,1685095396125,399.0,438.0
669,1685095396125,371.0,454.0
670,1685095396125,439.0,428.0
671,1685095396125,397.0,484.0
672,1685095396125,470.0,442.0
673,1685095396125,403.0,455.0
674,1685095396125,484.0,432.0
675,1685095396125,461.0,442.0
676,1685095396125,475.0,443.0
677,1685095396125,435.0,389.0
678,1685095396125,519.0,457.0
679,1685095396125,405.0,413.0
680,1685095396125,439.0,402.0
681,1685095396125,496.0,456.0
682,1685095396125,419.0,422.0
683,1685095396125,373.0,400.0
684,1685095396125,399.0,432.0
685,1685095396125,403.0,434.0
686,1685095396125,390.0,469.0
687,1685095396125,458.0,436.0
688,1685095396125,387.0,479.0
689,1685095396125,479.0,428.0
690,1685095396125,425.0,466.0
691,1685095396125,485.0,438.0
692,1685095396125,465.0,425.0
693,1685095396125,495.0,457.0
694,1685095396125,408.0,379.0
695,1685095396125,508.0,441.0
696,1685095396125,469.0,458.0
697,1685095396125,383.0,394.0
698,1685095396125,428.0,401.0
699,1685095396125,408.0,443.0
700,1685095396125,376.0,419.0
701,1685095396125,367.0,446.0
702,1685095396125,431.0,442.0
703,1685095396125,386.0,476.0
704,1685095396125,474.0,448.0
705,1685095396125,397.0,462.0
706,1685095396125,498.0,426.0
707,1685095396125,462.0,450.0
708,1685095396125,484.0,436.0
709,1685095396125,457.0,397.0
710,1685095396125,521.0,464.0
711,1685095396125,399.0,405.0
712,1685095396125,459.0,403.0
713,1685095396125,489.0,458.0
714,1685095396125,395.0,413.0
715,1685095396125,370.0,402.0
716,1685095396125,387.0,436.0
717,1685095396125,409.0,441.0
718,1685095396125,377.0,470.0
719,1685095396125,466.0,452.0
720,1685095396125,402.0,484.0
721,1685095396125,485.0,444.0
722,1685095396125,425.0,445.0
723,1685095396125,486.0,438.0
724,1685095396125,470.0,428.0
725,1685095396125,482.0,448.0
726,1685095396125,405.0,374.0
727,1685095396125,513.0,442.0
728,1685095396125,447.0,440.0
729,1685095396125,388.0,386.0
730,1685095396125,447.0,425.0
731,1685095396125,423.0,433.0
732,1685095396125,378.0,417.0
733,1685095396125,371.0,447.0
734,1685095396125,435.0,442.0
735,1685095396125,395.0,484.0
736,1685095396125,473.0,438.0
737,1685095396125,387.0,469.0
738,1685095396125,484.0,435.0
739,1685095396125,441.0,444.0
740,1685095396125,470.0,437.0
741,1685095396125,453.0,401.0
742,1685095396125,515.0,457.0
743,1685095396125,393.0,393.0
744,1685095396125,478.0,410.0
745,1685095396125,499.0,466.0
746,1685095396125,396.0,406.0
747,1685095396125,378.0,384.0
748,1685095396125,408.0,441.0
749,1685095396125,417.0,439.0
750,1685095396125,373.0,458.0
751,1685095396125,451.0,439.0
752,1685095396125,385.0,476.0
753,1685095396125,490.0,445.0
754,1685095396125,424.0,464.0
755,1685095396125,486.0,437.0
756,1685095396125,471.0,437.0
757,1685095396125,483.0,456.0
758,1685095396125,418.0,369.0
759,1685095396125,527.0,452.0
760,1685095396125,424.0,419.0
761,1685095396125,393.0,373.0
762,1685095396125,452.0,432.0
763,1685095396125,416.0,420.0
764,1685095396125,364.0,405.0
765,1685095396125,367.0,438.0
766,1685095396125,422.0,438.0
767,1685095396125,395.0,485.0
768,1685095396125,467.0,461.0
769,1685095396125,397.0,459.0
770,1685095396125,500.0,445.0
771,1685095396125,447.0,452.0
772,1685095396125,480.0,431.0
773,1685095396125,474.0,403.0
774,1685095396125,510.0,455.0
775,1685095396125,392.0,386.0
776,1685095396125,488.0,413.0
777,1685095396125,488.0,463.0
778,1685095396125,394.0,400.0
779,1685095396125,388.0,400.0
780,1685095396125,401.0,432.0
781,1685095396125,408.0,436.0
782,1685095396125,366.0,460.0
783,1685095396125,447.0,446.0
784,1685095396125,393.0,483.0
785,1685095396125,479.0,435.0
786,1685095396125,414.0,463.0
787,1685095396125,495.0,437.0
788,1685095396125,466.0,438.0
789,1685095396125,482.0,447.0
790,1685095396125,428.0,378.0
791,1685095396125,517.0,443.0
792,1685095396125,401.0,416.0
793,1685095396125,415.0,397.0
794,1685095396125,477.0,447.0
795,1685095396125,407.0,424.0
796,1685095396125,373.0,403.0
797,1685095396125,385.0,432.0
798,1685095396125,433.0,445.0
799,1685095396125,391.0,479.0
800,1685095396125,467.0,434.0
801,1685095396125,386.0,479.0
802,1685095396125,487.0,431.0
803,1685095396125,431.0,446.0
804,1685095396125,476.0,438.0
805,1685095396125,470.0,417.0
806,1685095396125,503.0,454.0
807,1685095396125,403.0,391.0
808,1685095396125,506.0,430.0
809,1685095396125,487.0,462.0
810,1685095396125,391.0,390.0
811,1685095396125,415.0,396.0
812,1685095396125,416.0,439.0
813,1685095396125,388.0,425.0
814,1685095396125,361.0,449.0
815,1685095396125,432.0,436.0
816,1685095396125,387.0,474.0
817,1685095396125,479.0,437.0
818,1685095396125,403.0,466.0
819,1685095396125,492.0,433.0
820,1685095396125,468.0,450.0
821,1685095396125,490.0,443.0
822,1685095396125,441.0,387.0
823,1685095396125,526.0,461.0
824,1685095396125,410.0,409.0
825,1685095396125,434.0,393.0
826,1685095396125,482.0,435.0
827,1685095396125,402.0,430.0
828,1685095396125,361.0,393.0
829,1685095396125,383.0,433.0
830,1685095396125,416.0,450.0
831,1685095396125,383.0,471.0
832,1685095396125,472.0,451.0
833,1685095396125,391.0,468.0
834,1685095396125,491.0,437.0
835,1685095396125,433.0,469.0
836,1685095396125,488.0,435.0
837,1685095396125,465.0,411.0
838,1685095396125,495.0,455.0
839,1685095396125,405.0,370.0
840,1685095396125,507.0,429.0
841,1685095396125,467.0,458.0
842,1685095396125,381.0,380.0
843,1685095396125,427.0,417.0
844,1685095396125,424.0,437.0
845,1685095396125,385.0,422.0
846,1685095396125,373.0,450.0
847,1685095396125,444.0,440.0
848,1685095396125,390.0,479.0
849,1685095396125,475.0,432.0
850,1685095396125,403.0,460.0
851,1685095396125,488.0,428.0
852,1685095396125,451.0,453.0
853,1685095396125,473.0,431.0
854,1685095396125,452.0,387.0
855,1685095396125,518.0,462.0
856,1685095396125,404.0,399.0
857,1685095396125,458.0,412.0
858,1685095396125,501.0,467.0
859,1685095396125,410.0,409.0
860,1685095396125,382.0,399.0
861,1685095396125,390.0,433.0
862,1685095396125,410.0,442.0
863,1685095396125,368.0,466.0
864,1685095396125,460.0,453.0
865,1685095396125,389.0,472.0
866,1685095396125,476.0,435.0
867,1685095396125,420.0,461.0
868,1685095396125,486.0,435.0
869,1685095396125,475.0,432.0
870,1685095396125,490.0,443.0
871,1685095396125,411.0,381.0
872,1685095396125,517.0,446.0
873,1685095396125,457.0,453.0
874,1685095396125,386.0,378.0
875,1685095396125,441.0,430.0
876,1685095396125,411.0,424.0
877,1685095396125,374.0,419.0
878,1685095396125,367.0,441.0
879,1685095396125,435.0,439.0
880,1685095396125,392.0,479.0
881,1685095396125,472.0,436.0
882,1685095396125,403.0,465.0
883,1685095396125,499.0,441.0
884,1685095396125,455.0,451.0
885,1685095396125,477.0,430.0
886,1685095396125,459.0,394.0
887,1685095396125,517.0,471.0
888,1685095396125,394.0,401.0
889,1685095396125,467.0,405.0
890,1685095396125,494.0,460.0
891,1685095396125,408.0,406.0
892,1685095396125,379.0,401.0
893,1685095396125,405.0,436.0
894,1685095396125,411.0,435.0
895,1685095396125,370.0,464.0
896,1685095396125,462.0,448.0
897,1685095396125,384.0,474.0
898,1685095396125,483.0,435.0
899,1685095396125,415.0,469.0
900,1685095396125,488.0,425.0
901,1685095396125,470.0,437.0
902,1685095396125,484.0,455.0
903,1685095396125,412.0,374.0
904,1685095396125,521.0,449.0
905,1685095396125,428.0,440.0
906,1685095396125,395.0,376.0
907,1685095396125,453.0,423.0
908,1685095396125,414.0,430.0
909,1685095396125,364.0,406.0
910,1685095396125,368.0,437.0
911,1685095396125,427.0,447.0
912,1685095396125,385.0,472.0
913,1685095396125,461.0,451.0
914,1685095396125,393.0,470.0
915,1685095396125,486.0,432.0
916,1685095396125,445.0,451.0
917,1685095396125,475.0,440.0
918,1685095396125,475.0,400.0
919,1685095396125,521.0,466.0
920,1685095396125,392.0,387.0
921,1685095396125,485.0,413.0
922,1685095396125,492.0,448.0
923,1685095396125,386.0,403.0
924,1685095396125,392.0,391.0
925,1685095396125,411.0,447.0
926,1685095396125,405.0,434.0
927,1685095396125,363.0,450.0
928,1685095396125,449.0,447.0
929,1685095396125,397.0,480.0
930,1685095396125,488.0,452.0
931,1685095396125,416.0,459.0
932,1685095396125,493.0,430.0
933,1685095396125,475.0,452.0
934,1685095396125,484.0,439.0
935,1685095396125,418.0,373.0
936,1685095396125,519.0,462.0
937,1685095396125,414.0,411.0
938,1685095396125,416.0,392.0
939,1685095396125,465.0,433.0
940,1685095396125,415.0,433.0
941,1685095396125,370.0,399.0
942,1685095396125,382.0,423.0
943,1685095396125,424.0,447.0
944,1685095396125,384.0,479.0
945,1685095396125,464.0,446.0
946,1685095396125,392.0,475.0
947,1685095396125,481.0,425.0
948,1685095396125,437.0,460.0
949,1685095396125,473.0,433.0
950,1685095396125,461.0,408.0
951,1685095396125,505.0,464.0
952,1685095396125,400.0,382.0
953,1685095396125,495.0,432.0
954,1685095396125,487.0,452.0
955,1685095396125,390.0,392.0
956,1685095396125,414.0,409.0
957,1685095396125,407.0,430.0
958,1685095396125,385.0,419.0
959,1685095396125,366.0,442.0
960,1685095396125,444.0,435.0
961,1685095396125,387.0,480.0
962,1685095396125,474.0,435.0
963,1685095396125,406.0,457.0
964,1685095396125,497.0,441.0
965,1685095396125,462.0,441.0
966,1685095396125,485.0,441.0
967,1685095396125,442.0,387.0
968,1685095396125,526.0,445.0
969,1685095396125,408.0,418.0
970,1685095396125,427.0,388.0
971,1685095396125,475.0,437.0
972,1685095396141,401.0,438.0
973,1685095396141,358.0,390.0
974,1685095396141,384.0,448.0
975,1685095396141,428.0,434.0
976,1685095396141,381.0,475.0
977,1685095396141,467.0,442.0
978,1685095396141,397.0,479.0
979,1685095396141,492.0,439.0
980,1685095396141,431.0,464.0
981,1685095396141,485.0,428.0
982,1685095396141,473.0,425.0
983,1685095396141,494.0,462.0
984,1685095396141,390.0,372.0
985,1685095396141,492.0,431.0
986,1685095396141,473.0,458.0
987,1685095396141,385.0,395.0
988,1685095396141,422.0,410.0
989,1685095396141,415.0,435.0
990,1685095396141,386.0,422.0
991,1685095396141,361.0,446.0
992,1685095396141,440.0,442.0
993,1685095396141,398.0,484.0
994,1685095396141,471.0,437.0
995,1685095396141,402.0,484.0
996,1685095396141,492.0,426.0
997,1685095396141,453.0,450.0
998,1685095396141,485.0,442.0
999,1685095396141,448.0,394.0
1000,1685095396141,522.0,462.0
1001,1685095396141,413.0,408.0
1002,1685095396141,448.0,394.0
1003,1685095396141,494.0,459.0
1004,1685095396141,407.0,410.0
1005,1685095396141,375.0,396.0
1006,1685095396141,424.0,471.0
1007,1685095396141,423.0,436.0
1008,1685095396141,373.0,469.0
1009,1685095396141,457.0,449.0
1010,1685095396141,392.0,472.0
1011,1685095396141,481.0,442.0
1012,1685095396141,418.0,457.0
1013,1685095396141,477.0,429.0
1014,1685095396141,477.0,431.0
1015,1685095396141,480.0,447.0
1016,1685095396141,406.0,376.0
1017,1685095396141,513.0,440.0
1018,1685095396141,442.0,428.0
1019,1685095396141,388.0,393.0
1020,1685095396141,442.0,419.0
1021,1685095396141,415.0,448.0
1022,1685095396141,381.0,407.0
1023,1685095396141,371.0,447.0
1024,1685095396141,438.0,449.0
1025,1685095396141,386.0,480.0
1026,1685095396141,471.0,443.0
1027,1685095396141,392.0,448.0
1028,1685095396141,493.0,440.0
1029,1685095396141,451.0,450.0
1030,1685095396141,482.0,440.0
1031,1685095396141,460.0,397.0
1032,1685095396141,532.0,473.0
1033,1685095396141,401.0,400.0
1034,1685095396141,470.0,408.0
1035,1685095396141,499.0,470.0
1036,1685095396141,405.0,412.0
1037,1685095396141,387.0,401.0
1038,1685095396141,396.0,443.0
1039,1685095396141,402.0,441.0
1040,1685095396141,367.0,453.0
1041,1685095396141,459.0,449.0
1042,1685095396141,392.0,473.0
1043,1685095396141,488.0,435.0
1044,1685095396141,420.0,459.0
1045,1685095396141,491.0,442.0
1046,1685095396141,471.0,438.0
1047,1685095396141,487.0,440.0
1048,1685095396141,418.0,378.0
1049,1685095396141,512.0,442.0
1050,1685095396141,427.0,431.0
1051,1685095396141,394.0,366.0
1052,1685095396141,452.0,432.0
1053,1685095396141,415.0,424.0
1054,1685095396141,371.0,406.0
1055,1685095396141,373.0,435.0
1056,1685095396141,440.0,440.0
1057,1685095396141,390.0,479.0
1058,1685095396141,468.0,441.0
1059,1685095396141,396.0,471.0
1060,1685095396141,492.0,437.0
1061,1685095396141,443.0,460.0
1062,1685095396141,475.0,426.0
1063,1685095396141,467.0,409.0
1064,1685095396141,515.0,463.0
1065,1685095396141,385.0,377.0
1066,1685095396141,476.0,419.0
1067,1685095396141,488.0,452.0
1068,1685095396141,386.0,408.0
1069,1685095396141,394.0,386.0
1070,1685095396141,411.0,450.0
1071,1685095396141,410.0,434.0
1072,1685095396141,369.0,469.0
1073,1685095396141,453.0,447.0
1074,1685095396141,385.0,467.0
1075,1685095396141,478.0,444.0
1076,1685095396141,408.0,471.0
1077,1685095396141,489.0,427.0
1078,1685095396141,467.0,438.0
1079,1685095396141,477.0,440.0
1080,1685095396141,430.0,389.0
1081,1685095396141,528.0,456.0
1082,1685095396141,412.0,409.0
1083,1685095396141,414.0,391.0
1084,1685095396141,472.0,427.0
1085,1685095396141,400.0,419.0
1086,1685095396141,373.0,421.0
1087,1685095396141,381.0,429.0
1088,1685095396141,429.0,446.0
1089,1685095396141,382.0,471.0
1090,1685095396141,466.0,449.0
1091,1685095396141,395.0,467.0
1092,1685095396141,493.0,436.0
1093,1685095396141,438.0,461.0
1094,1685095396141,479.0,429.0
1095,1685095396141,475.0,414.0
1096,1685095396141,503.0,457.0
1097,1685095396141,389.0,367.0
1098,1685095396141,497.0,436.0
1099,1685095396141,482.0,458.0
1100,1685095396141,380.0,395.0
1101,1685095396141,403.0,402.0
1102,1685095396141,411.0,432.0
1103,1685095396141,393.0,428.0
1104,1685095396141,367.0,450.0
1105,1685095396141,444.0,449.0
1106,1685095396141,389.0,478.0
1107,1685095396141,484.0,445.0
1108,1685095396141,407.0,459.0
1109,1685095396141,494.0,437.0
1110,1685095396141,468.0,452.0
1111,1685095396141,475.0,434.0
1112,1685095396141,437.0,387.0
1113,1685095396141,529.0,465.0
1114,1685095396141,408.0,404.0
1115,1685095396141,427.0,402.0
1116,1685095396141,484.0,443.0
1117,1685095396141,398.0,422.0
1118,1685095396141,370.0,402.0
1119,1685095396141,391.0,427.0
1120,1685095396141,427.0,449.0
1121,1685095396141,384.0,469.0
1122,1685095396141,475.0,449.0
1123,1685095396141,391.0,479.0
1124,1685095396141,492.0,433.0
1125,1685095396141,425.0,460.0
1126,1685095396141,481.0,424.0
1127,1685095396141,478.0,426.0
1128,1685095396141,491.0,452.0
1129,1685095396141,392.0,372.0
1130,1685095396141,511.0,441.0
1131,1685095396141,471.0,455.0
1132,1685095396141,389.0,386.0
1133,1685095396141,429.0,416.0
1134,1685095396141,416.0,436.0
1135,1685095396141,381.0,410.0
1136,1685095396141,364.0,449.0
1137,1685095396141,450.0,450.0
1138,1685095396141,382.0,478.0
1139,1685095396141,479.0,438.0
1140,1685095396141,393.0,467.0
1141,1685095396141,488.0,420.0
1142,1685095396141,460.0,452.0
1143,1685095396141,473.0,437.0
1144,1685095396141,457.0,401.0
1145,1685095396141,523.0,457.0
1146,1685095396141,400.0,402.0
1147,1685095396141,453.0,407.0
1148,1685095396141,488.0,454.0
1149,1685095396141,405.0,422.0
1150,1685095396141,378.0,398.0
1151,1685095396141,391.0,442.0
1152,1685095396141,419.0,444.0
1153,1685095396141,372.0,461.0
1154,1685095396141,466.0,453.0
1155,1685095396141,393.0,478.0
1156,1685095396141,482.0,439.0
1157,1685095396141,420.0,464.0
1158,1685095396141,486.0,436.0
1159,1685095396141,471.0,437.0
1160,1685095396141,489.0,467.0
1161,1685095396141,405.0,364.0
1162,1685095396141,512.0,446.0
1163,1685095396141,461.0,442.0
1164,1685095396141,384.0,373.0
1165,1685095396141,442.0,411.0
1166,1685095396141,421.0,438.0
1167,1685095396141,371.0,418.0
1168,1685095396141,376.0,438.0
1169,1685095396141,433.0,446.0
1170,1685095396141,377.0,478.0
1171,1685095396141,477.0,439.0
1172,1685095396141,390.0,492.0
1173,1685095396141,491.0,425.0
1174,1685095396141,445.0,453.0
1175,1685095396141,476.0,427.0
1176,1685095396141,462.0,396.0
1177,1685095396141,526.0,468.0
1178,1685095396141,395.0,386.0
1179,1685095396141,472.0,421.0
1180,1685095396141,497.0,456.0
1181,1685095396141,398.0,416.0
1182,1685095396141,386.0,393.0
1183,1685095396141,403.0,434.0
1184,1685095396141,407.0,430.0
1185,1685095396141,366.0,457.0
1186,1685095396157,465.0,456.0
1187,1685095396157,400.0,488.0
1188,1685095396157,484.0,438.0
1189,1685095396157,419.0,466.0
1190,1685095396189,493.0,441.0
1191,1685095396189,467.0,437.0
1192,1685095396189,490.0,456.0
1193,1685095396220,415.0,372.0
1194,1685095396220,517.0,448.0
1195,1685095396220,422.0,434.0
1196,1685095396220,388.0,381.0
1197,1685095396257,453.0,421.0
1198,1685095396257,404.0,432.0
1199,1685095396257,368.0,406.0
1200,1685095396288,383.0,448.0
1201,1685095396288,436.0,438.0
1202,1685095396288,384.0,483.0
1203,1685095396288,482.0,442.0
1204,1685095396315,392.0,470.0
1205,1685095396315,494.0,431.0
1206,1685095396315,435.0,446.0
1207,1685095396315,470.0,451.0
1208,1685095396362,461.0,402.0
1209,1685095396362,515.0,462.0
1210,1685095396362,390.0,381.0
1211,1685095396384,487.0,412.0
1212,1685095396384,495.0,457.0
1213,1685095396384,395.0,401.0
1214,1685095396384,402.0,398.0
1215,1685095396429,413.0,445.0
1216,1685095396429,400.0,439.0
1217,1685095396429,370.0,448.0
1218,1685095396444,448.0,456.0
1219,1685095396444,388.0,477.0
1220,1685095396444,480.0,431.0
1221,1685095396444,403.0,465.0
1222,1685095396491,490.0,440.0
1223,1685095396491,465.0,428.0
1224,1685095396491,487.0,447.0
1225,1685095396523,428.0,372.0
1226,1685095396523,527.0,445.0
1227,1685095396523,427.0,438.0
1228,1685095396523,410.0,388.0
1229,1685095396558,474.0,439.0
1230,1685095396558,407.0,422.0
1231,1685095396558,366.0,399.0
1232,1685095396586,379.0,443.0
1233,1685095396586,421.0,434.0
1234,1685095396586,385.0,464.0
1235,1685095396586,466.0,446.0
1236,1685095396617,393.0,470.0
1237,1685095396617,497.0,446.0
1238,1685095396617,444.0,458.0
1239,1685095396617,491.0,432.0
1240,1685095396659,474.0,430.0
1241,1685095396659,506.0,447.0
1242,1685095396659,394.0,371.0
1243,1685095396692,501.0,417.0
1244,1685095396692,475.0,467.0
1245,1685095396692,380.0,396.0
1246,1685095396692,419.0,401.0
1247,1685095396726,415.0,449.0
1248,1685095396726,394.0,419.0
1249,1685095396726,369.0,457.0
1250,1685095396758,460.0,448.0
1251,1685095396758,388.0,471.0
1252,1685095396758,479.0,438.0
1253,1685095396758,409.0,475.0
1254,1685095396789,494.0,435.0
1255,1685095396789,458.0,435.0
1256,1685095396789,484.0,438.0
1257,1685095396821,436.0,389.0
1258,1685095396821,515.0,456.0
1259,1685095396821,415.0,406.0
1260,1685095396821,440.0,397.0
1261,1685095396853,487.0,430.0
1262,1685095396853,411.0,440.0
1263,1685095396853,369.0,407.0
1264,1685095396885,392.0,437.0
1265,1685095396885,428.0,457.0
1266,1685095396885,380.0,462.0
1267,1685095396885,467.0,451.0
1268,1685095396915,390.0,470.0
1269,1685095396915,484.0,433.0
1270,1685095396915,419.0,453.0
1271,1685095396915,485.0,435.0
1272,1685095396960,466.0,413.0
1273,1685095396960,497.0,453.0
1274,1685095396960,409.0,374.0
1275,1685095396992,502.0,448.0
1276,1685095396992,473.0,453.0
1277,1685095396992,380.0,384.0
1278,1685095396992,430.0,413.0
1279,1685095397027,409.0,432.0
1280,1685095397027,379.0,421.0
1281,1685095397027,369.0,453.0
1282,1685095397058,429.0,440.0
1283,1685095397058,382.0,479.0
1284,1685095397058,478.0,438.0
1285,1685095397058,406.0,476.0
1286,1685095397090,507.0,411.0
1287,1685095397090,458.0,463.0
1288,1685095397090,482.0,441.0
1289,1685095397121,463.0,394.0
1290,1685095397121,518.0,478.0
1291,1685095397121,401.0,394.0
1292,1685095397121,459.0,402.0
1293,1685095397152,492.0,456.0
1294,1685095397152,394.0,409.0
1295,1685095397152,381.0,401.0
1296,1685095397185,387.0,426.0
1297,1685095397185,419.0,438.0
1298,1685095397185,376.0,462.0
1299,1685095397185,472.0,455.0
1300,1685095397215,394.0,487.0
1301,1685095397215,492.0,432.0
1302,1685095397215,430.0,464.0
1303,1685095397215,495.0,431.0
1304,1685095397260,481.0,436.0
1305,1685095397260,486.0,452.0
1306,1685095397260,402.0,370.0
1307,1685095397292,509.0,436.0
1308,1685095397292,439.0,441.0
1309,1685095397292,369.0,377.0
1310,1685095397292,443.0,425.0
1311,1685095397327,414.0,430.0
1312,1685095397327,369.0,418.0
1313,1685095397327,371.0,440.0
1314,1685095397359,440.0,440.0
1315,1685095397359,386.0,483.0
1316,1685095397359,482.0,440.0
1317,1685095397359,409.0,466.0
1318,1685095397391,494.0,428.0
1319,1685095397391,442.0,451.0
1320,1685095397391,477.0,431.0
1321,1685095397422,457.0,399.0
1322,1685095397422,515.0,464.0
1323,1685095397422,394.0,384.0
1324,1685095397422,470.0,415.0
1325,1685095397453,513.0,463.0
1326,1685095397453,388.0,411.0
1327,1685095397453,386.0,398.0
1328,1685095397486,412.0,431.0
1329,1685095397486,422.0,452.0
1330,1685095397486,367.0,454.0
1331,1685095397486,454.0,446.0
1332,1685095397517,391.0,476.0
1333,1685095397517,478.0,436.0
1334,1685095397517,405.0,466.0
1335,1685095397517,486.0,430.0
1336,1685095397561,463.0,425.0
1337,1685095397561,483.0,462.0
1338,1685095397561,423.0,391.0
1339,1685095397593,527.0,454.0
1340,1685095397593,427.0,426.0
1341,1685095397593,394.0,391.0
1342,1685095397593,463.0,418.0
1343,1685095397628,406.0,438.0
1344,1685095397628,373.0,415.0
1345,1685095397628,369.0,436.0
1346,1685095397659,422.0,431.0
1347,1685095397659,368.0,475.0
1348,1685095397659,457.0,437.0
1349,1685095397659,395.0,475.0
1350,1685095397694,507.0,447.0
1351,1685095397694,442.0,460.0
1352,1685095397694,488.0,443.0
1353,1685095397726,472.0,414.0
1354,1685095397726,508.0,465.0
1355,1685095397726,394.0,379.0
1356,1685095397726,481.0,419.0
1357,1685095397760,494.0,462.0
1358,1685095397760,370.0,394.0
1359,1685095397760,389.0,399.0
1360,1685095397791,407.0,435.0
1361,1685095397791,389.0,423.0
1362,1685095397791,362.0,468.0
1363,1685095397791,456.0,439.0
1364,1685095397826,413.0,491.0
1365,1685095397826,498.0,439.0
1366,1685095397826,412.0,466.0
1367,1685095397826,504.0,434.0
1368,1685095397862,468.0,450.0
1369,1685095397862,477.0,424.0
1370,1685095397862,431.0,386.0
1371,1685095397893,519.0,454.0
1372,1685095397893,400.0,408.0
1373,1685095397893,410.0,397.0
1374,1685095397893,479.0,446.0
1375,1685095397928,393.0,417.0
1376,1685095397928,375.0,417.0
1377,1685095397928,379.0,436.0
1378,1685095397961,429.0,447.0
1379,1685095397961,393.0,467.0
1380,1685095397961,474.0,458.0
1381,1685095397961,392.0,474.0
1382,1685095397994,496.0,440.0
1383,1685095397994,433.0,456.0
1384,1685095397994,479.0,432.0
1385,1685095398025,462.0,414.0
1386,1685095398025,497.0,454.0
1387,1685095398025,397.0,384.0
1388,1685095398025,502.0,438.0
1389,1685095398055,488.0,461.0
1390,1685095398055,380.0,391.0
1391,1685095398055,416.0,403.0
1392,1685095398087,416.0,445.0
1393,1685095398087,398.0,415.0
1394,1685095398087,365.0,455.0
1395,1685095398087,443.0,439.0
1396,1685095398118,383.0,477.0
1397,1685095398118,474.0,437.0
1398,1685095398118,398.0,448.0
1399,1685095398118,490.0,435.0
1400,1685095398162,456.0,446.0
1401,1685095398162,475.0,442.0
1402,1685095398162,448.0,403.0
1403,1685095398193,519.0,454.0
1404,1685095398193,403.0,413.0
1405,1685095398193,438.0,399.0
1406,1685095398193,497.0,440.0
1407,1685095398228,390.0,423.0
1408,1685095398228,367.0,399.0
1409,1685095398228,379.0,431.0
1410,1685095398260,424.0,442.0
1411,1685095398260,379.0,469.0
1412,1685095398260,469.0,453.0
1413,1685095398260,394.0,472.0
1414,1685095398291,496.0,452.0
1415,1685095398291,434.0,459.0
1416,1685095398291,496.0,427.0
1417,1685095398324,473.0,427.0
1418,1685095398324,487.0,451.0
1419,1685095398324,411.0,383.0
1420,1685095398324,503.0,434.0
1421,1685095398355,455.0,445.0
1422,1685095398355,375.0,388.0
1423,1685095398355,426.0,401.0
1424,1685095398387,408.0,429.0
1425,1685095398387,377.0,422.0
1426,1685095398387,366.0,439.0
1427,1685095398387,442.0,441.0
1428,1685095398418,395.0,484.0
1429,1685095398418,489.0,443.0
1430,1685095398418,403.0,461.0
1431,1685095398418,502.0,441.0
1432,1685095398463,453.0,464.0
1433,1685095398463,465.0,427.0
1434,1685095398463,454.0,404.0
1435,1685095398495,511.0,456.0
1436,1685095398495,383.0,384.0
1437,1685095398495,452.0,406.0
1438,1685095398495,499.0,459.0
1439,1685095398530,405.0,426.0
1440,1685095398530,380.0,398.0
1441,1685095398530,405.0,449.0
1442,1685095398562,433.0,444.0
1443,1685095398562,389.0,467.0
1444,1685095398562,472.0,445.0
1445,1685095398562,395.0,485.0
1446,1685095398595,484.0,436.0
1447,1685095398595,412.0,466.0
1448,1685095398595,474.0,427.0
1449,1685095398626,469.0,432.0
1450,1685095398626,485.0,444.0
1451,1685095398626,397.0,372.0
1452,1685095398626,523.0,457.0
1453,1685095398656,446.0,428.0
1454,1685095398656,387.0,383.0
1455,1685095398656,457.0,440.0
1456,1685095398688,419.0,428.0
1457,1685095398688,381.0,421.0
1458,1685095398688,378.0,450.0
1459,1685095398688,433.0,432.0
1460,1685095398719,388.0,464.0
1461,1685095398719,472.0,444.0
1462,1685095398719,394.0,465.0
1463,1685095398719,491.0,434.0
1464,1685095398764,445.0,451.0
1465,1685095398764,479.0,441.0
1466,1685095398764,457.0,399.0
1467,1685095398795,521.0,460.0
1468,1685095398795,399.0,390.0
1469,1685095398795,474.0,417.0
1470,1685095398795,497.0,448.0
1471,1685095398829,380.0,403.0
1472,1685095398829,382.0,397.0
1473,1685095398829,391.0,426.0
1474,1685095398861,406.0,429.0
1475,1685095398861,365.0,467.0
1476,1685095398861,450.0,446.0
1477,1685095398861,393.0,478.0
1478,1685095398893,499.0,454.0
1479,1685095398893,428.0,470.0
1480,1685095398893,505.0,436.0
1481,1685095398924,485.0,442.0
1482,1685095398924,481.0,451.0
1483,1685095398924,420.0,371.0
1484,1685095398924,509.0,447.0
1485,1685095398955,409.0,418.0
1486,1685095398955,385.0,379.0
1487,1685095398955,461.0,418.0
1488,1685095398988,406.0,431.0
1489,1685095398988,369.0,408.0
1490,1685095398988,368.0,438.0
1491,1685095398988,443.0,453.0
1492,1685095399019,398.0,482.0
1493,1685095399019,484.0,450.0
1494,1685095399019,403.0,469.0
1495,1685095399019,489.0,429.0
1496,1685095399063,438.0,462.0
1497,1685095399063,471.0,426.0
1498,1685095399063,454.0,404.0
1499,1685095399095,506.0,464.0
1500,1685095399095,387.0,374.0
1501,1685095399095,478.0,425.0
1502,1685095399095,489.0,459.0
1503,1685095399130,381.0,393.0
1504,1685095399130,408.0,409.0
1505,1685095399130,419.0,437.0
1506,1685095399162,411.0,441.0
1507,1685095399162,378.0,455.0
1508,1685095399162,449.0,449.0
1509,1685095399162,389.0,469.0
1510,1685095399193,481.0,447.0
1511,1685095399193,402.0,448.0
1512,1685095399193,486.0,439.0
1513,1685095399224,466.0,435.0
1514,1685095399224,480.0,454.0
1515,1685095399224,426.0,380.0
1516,1685095399224,525.0,465.0
1517,1685095399256,416.0,421.0
1518,1685095399256,408.0,384.0
1519,1685095399256,482.0,443.0
1520,1685095399289,402.0,424.0
1521,1685095399289,370.0,400.0
1522,1685095399289,381.0,443.0
1523,1685095399289,426.0,441.0
1524,1685095399319,390.0,477.0
1525,1685095399319,470.0,440.0
1526,1685095399319,390.0,474.0
1527,1685095399319,496.0,438.0
1528,1685095399365,439.0,464.0
1529,1685095399365,490.0,430.0
1530,1685095399365,471.0,420.0
1531,1685095399397,496.0,445.0
1532,1685095399397,400.0,390.0
1533,1685095399397,498.0,440.0
1534,1685095399397,478.0,464.0
1535,1685095399432,370.0,385.0
1536,1685095399432,411.0,404.0
1537,1685095399432,413.0,444.0
1538,1685095399464,389.0,413.0
1539,1685095399464,369.0,451.0
1540,1685095399464,435.0,426.0
1541,1685095399464,399.0,488.0
1542,1685095399495,489.0,440.0
1543,1685095399495,411.0,465.0
1544,1685095399495,501.0,441.0
1545,1685095399527,460.0,445.0
1546,1685095399527,480.0,440.0
1547,1685095399527,442.0,393.0
1548,1685095399527,517.0,457.0
1549,1685095399558,400.0,416.0
1550,1685095399558,427.0,403.0
1551,1685095399558,489.0,445.0
1552,1685095399589,401.0,420.0
1553,1685095399589,369.0,400.0
1554,1685095399589,393.0,442.0
1555,1685095399589,431.0,444.0
1556,1685095399620,387.0,471.0
1557,1685095399620,480.0,451.0
1558,1685095399620,390.0,470.0
1559,1685095399620,495.0,445.0
1560,1685095399665,424.0,446.0
1561,1685095399665,479.0,431.0
1562,1685095399665,466.0,428.0
1563,1685095399697,492.0,453.0
1564,1685095399697,401.0,363.0
1565,1685095399697,501.0,432.0
1566,1685095399697,470.0,453.0
1567,1685095399732,373.0,391.0
1568,1685095399732,438.0,413.0
1569,1685095399732,412.0,439.0
1570,1685095399763,389.0,417.0
1571,1685095399763,375.0,449.0
1572,1685095399763,446.0,444.0
1573,1685095399763,399.0,486.0
1574,1685095399798,472.0,427.0
1575,1685095399798,395.0,469.0
1576,1685095399798,485.0,436.0
1577,1685095399825,446.0,444.0
1578,1685095399825,478.0,438.0
1579,1685095399825,446.0,394.0
1580,1685095399825,524.0,471.0
1581,1685095399857,399.0,401.0
1582,1685095399857,448.0,393.0
1583,1685095399857,511.0,467.0
1584,1685095399890,393.0,414.0
1585,1685095399890,380.0,398.0
1586,1685095399890,396.0,435.0
1587,1685095399890,406.0,434.0
1588,1685095399921,380.0,465.0
1589,1685095399921,462.0,442.0
1590,1685095399921,392.0,476.0
1591,1685095399921,491.0,438.0
1592,1685095399966,419.0,457.0
1593,1685095399966,491.0,431.0
1594,1685095399966,470.0,421.0
1595,1685095399997,490.0,460.0
1596,1685095399997,405.0,373.0
1597,1685095399997,506.0,433.0
1598,1685095399997,453.0,440.0
1599,1685095400032,374.0,381.0
1600,1685095400032,448.0,439.0
1601,1685095400032,405.0,426.0
1602,1685095400063,374.0,408.0
1603,1685095400063,364.0,444.0
1604,1685095400063,435.0,446.0
1605,1685095400063,395.0,484.0
1606,1685095400095,471.0,446.0
1607,1685095400095,398.0,456.0
1608,1685095400095,507.0,436.0
1609,1685095400126,456.0,455.0
1610,1685095400126,486.0,437.0
1611,1685095400126,460.0,395.0
1612,1685095400126,516.0,465.0
1613,1685095400159,387.0,386.0
1614,1685095400159,460.0,410.0
1615,1685095400159,497.0,457.0
1616,1685095400191,383.0,400.0
1617,1685095400191,379.0,391.0
1618,1685095400191,402.0,445.0
1619,1685095400191,411.0,437.0
1620,1685095400221,375.0,458.0
1621,1685095400221,455.0,446.0
1622,1685095400221,395.0,483.0
1623,1685095400221,496.0,433.0
1624,1685095400267,419.0,468.0
1625,1685095400267,487.0,430.0
1626,1685095400267,471.0,440.0
1627,1685095400298,487.0,455.0
1628,1685095400298,397.0,375.0
1629,1685095400298,509.0,447.0
1630,1685095400298,429.0,428.0
1631,1685095400333,381.0,379.0
1632,1685095400333,463.0,435.0
1633,1685095400333,409.0,426.0
1634,1685095400366,388.0,419.0
1635,1685095400366,391.0,449.0
1636,1685095400366,436.0,442.0
1637,1685095400366,397.0,477.0
1638,1685095400398,478.0,446.0
1639,1685095400398,386.0,465.0
1640,1685095400398,490.0,436.0
1641,1685095400428,434.0,443.0
1642,1685095400428,473.0,434.0
1643,1685095400428,459.0,401.0
1644,1685095400428,508.0,470.0
1645,1685095400461,399.0,389.0
1646,1685095400461,490.0,431.0
1647,1685095400461,507.0,452.0
1648,1685095400491,380.0,409.0
1649,1685095400491,392.0,391.0
1650,1685095400491,414.0,442.0
1651,1685095400491,408.0,426.0
1652,1685095400522,355.0,450.0
1653,1685095400522,450.0,444.0
1654,1685095400522,395.0,476.0
1655,1685095400522,490.0,446.0
1656,1685095400567,418.0,467.0
1657,1685095400567,504.0,440.0
1658,1685095400567,481.0,448.0
1659,1685095400599,490.0,450.0
1660,1685095400599,428.0,377.0
1661,1685095400599,525.0,456.0
1662,1685095400599,421.0,416.0
1663,1685095400633,394.0,395.0
1664,1685095400633,461.0,430.0
1665,1685095400633,394.0,420.0
1666,1685095400665,364.0,414.0
1667,1685095400665,371.0,430.0
1668,1685095400665,428.0,445.0
1669,1685095400665,387.0,470.0
1670,1685095400697,476.0,459.0
1671,1685095400697,398.0,476.0
1672,1685095400697,505.0,453.0
1673,1685095400728,437.0,457.0
1674,1685095400728,487.0,425.0
1675,1685095400728,464.0,400.0
1676,1685095400728,495.0,467.0
1677,1685095400764,392.0,376.0
1678,1685095400764,481.0,420.0
1679,1685095400764,480.0,442.0
1680,1685095400792,366.0,408.0
1681,1685095400792,410.0,412.0
1682,1685095400792,409.0,450.0
1683,1685095400792,410.0,438.0
1684,1685095400833,368.0,444.0
1685,1685095400833,455.0,454.0
1686,1685095400833,401.0,473.0
1687,1685095400833,487.0,443.0
1688,1685095400868,404.0,457.0
1689,1685095400868,492.0,436.0
1690,1685095400868,458.0,432.0
1691,1685095400901,467.0,449.0
1692,1685095400901,431.0,382.0
1693,1685095400901,518.0,453.0
1694,1685095400901,410.0,412.0
1695,1685095400935,421.0,395.0
1696,1685095400935,495.0,445.0
1697,1685095400935,404.0,432.0
1698,1685095400966,378.0,413.0
1699,1685095400966,387.0,442.0
1700,1685095400966,435.0,443.0
1701,1685095400966,408.0,488.0
1702,1685095400997,469.0,434.0
1703,1685095400997,385.0,474.0
1704,1685095400997,495.0,432.0
1705,1685095401028,420.0,458.0
1706,1685095401028,478.0,429.0
1707,1685095401028,471.0,418.0
1708,1685095401028,500.0,441.0
1709,1685095401061,404.0,390.0
1710,1685095401061,500.0,432.0
1711,1685095401061,488.0,453.0
1712,1685095401092,378.0,404.0
1713,1685095401092,421.0,410.0
1714,1685095401092,417.0,433.0
1715,1685095401092,383.0,404.0
1716,1685095401123,362.0,447.0
1717,1685095401123,443.0,442.0
1718,1685095401123,384.0,481.0
1719,1685095401123,477.0,442.0
1720,1685095401168,397.0,455.0
1721,1685095401168,502.0,431.0
1722,1685095401168,469.0,457.0
1723,1685095401200,481.0,432.0
1724,1685095401200,458.0,404.0
1725,1685095401200,520.0,452.0
1726,1685095401200,405.0,391.0
1727,1685095401235,435.0,400.0
1728,1685095401235,487.0,442.0
1729,1685095401235,372.0,421.0
1730,1685095401267,370.0,393.0
1731,1685095401267,384.0,436.0
1732,1685095401267,425.0,437.0
1733,1685095401267,372.0,465.0
1734,1685095401298,481.0,461.0
1735,1685095401298,395.0,469.0
1736,1685095401298,503.0,443.0
1737,1685095401330,430.0,463.0
1738,1685095401330,492.0,433.0
1739,1685095401330,480.0,428.0
1740,1685095401330,484.0,447.0
1741,1685095401362,397.0,377.0
1742,1685095401362,498.0,431.0
1743,1685095401362,449.0,444.0
1744,1685095401399,366.0,380.0
1745,1685095401399,422.0,400.0
1746,1685095401399,407.0,443.0
1747,1685095401399,385.0,414.0
1748,1685095401424,367.0,452.0
1749,1685095401424,453.0,453.0
1750,1685095401424,395.0,465.0
1751,1685095401424,484.0,446.0
1752,1685095401468,396.0,460.0
1753,1685095401468,492.0,427.0
1754,1685095401468,445.0,452.0
1755,1685095401501,468.0,429.0
1756,1685095401501,435.0,383.0
1757,1685095401501,506.0,457.0
1758,1685095401501,395.0,394.0
1759,1685095401535,459.0,408.0
1760,1685095401535,509.0,456.0
1761,1685095401535,406.0,410.0
1762,1685095401567,394.0,410.0
1763,1685095401567,408.0,439.0
1764,1685095401567,426.0,445.0
1765,1685095401567,373.0,452.0
1766,1685095401598,474.0,452.0
1767,1685095401598,393.0,470.0
1768,1685095401598,489.0,420.0
1769,1685095401630,411.0,450.0
1770,1685095401630,476.0,431.0
1771,1685095401630,476.0,431.0
1772,1685095401630,487.0,448.0
1773,1685095401661,412.0,377.0
1774,1685095401661,527.0,452.0
1775,1685095401661,447.0,426.0
1776,1685095401693,383.0,396.0
1777,1685095401693,458.0,420.0
1778,1685095401693,402.0,418.0
1779,1685095401693,374.0,415.0
1780,1685095401724,356.0,431.0
1781,1685095401724,432.0,441.0
1782,1685095401724,375.0,479.0
1783,1685095401724,470.0,439.0
1784,1685095401769,391.0,461.0
1785,1685095401769,513.0,445.0
1786,1685095401769,460.0,463.0
1787,1685095401801,486.0,423.0
1788,1685095401801,478.0,409.0
1789,1685095401801,522.0,454.0
1790,1685095401801,387.0,380.0
1791,1685095401836,455.0,412.0
1792,1685095401836,489.0,452.0
1793,1685095401836,387.0,407.0
1794,1685095401867,381.0,387.0
1795,1685095401867,393.0,433.0
1796,1685095401867,402.0,423.0
1797,1685095401867,372.0,464.0
1798,1685095401899,476.0,452.0
1799,1685095401899,400.0,474.0
1800,1685095401899,502.0,455.0
1801,1685095401930,423.0,461.0
1802,1685095401930,498.0,432.0
1803,1685095401930,476.0,431.0
1804,1685095401930,493.0,443.0
1805,1685095401963,407.0,380.0
1806,1685095401963,511.0,439.0
1807,1685095401963,414.0,412.0
1808,1685095401994,385.0,402.0
1809,1685095401994,463.0,415.0
1810,1685095401994,393.0,432.0
1811,1685095401994,387.0,410.0
1812,1685095402025,386.0,444.0
1813,1685095402025,457.0,451.0
1814,1685095402025,393.0,470.0
1815,1685095402025,485.0,446.0
1816,1685095402070,390.0,458.0
1817,1685095402070,487.0,433.0
1818,1685095402070,421.0,445.0
1819,1685095402103,469.0,439.0
1820,1685095402103,450.0,413.0
1821,1685095402103,516.0,464.0
1822,1685095402103,386.0,381.0
1823,1685095402137,483.0,433.0
1824,1685095402137,515.0,467.0
1825,1685095402137,384.0,416.0
1826,1685095402170,407.0,394.0
1827,1685095402170,418.0,446.0
1828,1685095402170,410.0,435.0
1829,1685095402170,356.0,451.0
1830,1685095402200,452.0,448.0
1831,1685095402200,379.0,471.0
1832,1685095402200,479.0,437.0
1833,1685095402231,398.0,451.0
1834,1685095402231,494.0,441.0
1835,1685095402231,474.0,444.0
1836,1685095402231,490.0,447.0
1837,1685095402263,426.0,379.0
1838,1685095402263,533.0,466.0
1839,1685095402263,424.0,429.0
1840,1685095402295,406.0,387.0
1841,1685095402295,472.0,434.0
1842,1685095402295,389.0,424.0
1843,1685095402295,359.0,397.0
1844,1685095402326,364.0,436.0
1845,1685095402326,430.0,443.0
1846,1685095402326,370.0,475.0
1847,1685095402326,481.0,455.0
1848,1685095402372,402.0,473.0
1849,1685095402372,510.0,438.0
1850,1685095402372,451.0,461.0
1851,1685095402404,491.0,440.0
1852,1685095402404,473.0,413.0
1853,1685095402404,502.0,459.0
1854,1685095402404,385.0,372.0
1855,1685095402437,474.0,419.0
1856,1685095402437,475.0,454.0
1857,1685095402437,370.0,399.0
1858,1685095402469,402.0,398.0
1859,1685095402469,406.0,432.0
1860,1685095402469,397.0,424.0
1861,1685095402469,369.0,459.0
1862,1685095402500,463.0,451.0
1863,1685095402500,391.0,476.0
1864,1685095402500,491.0,444.0
1865,1685095402532,401.0,458.0
1866,1685095402532,495.0,443.0
1867,1685095402532,466.0,445.0
1868,1685095402532,473.0,433.0
1869,1685095402563,436.0,384.0
1870,1685095402563,513.0,451.0
1871,1685095402563,402.0,411.0
1872,1685095402604,418.0,393.0
1873,1685095402604,487.0,445.0
1874,1685095402604,395.0,425.0
1875,1685095402604,372.0,399.0
1876,1685095402626,387.0,445.0
1877,1685095402626,433.0,449.0
1878,1685095402626,382.0,459.0
1879,1685095402626,481.0,450.0
1880,1685095402671,385.0,462.0
1881,1685095402671,478.0,432.0
1882,1685095402671,403.0,446.0
1883,1685095402703,482.0,419.0
1884,1685095402703,467.0,438.0
1885,1685095402703,497.0,460.0
1886,1685095402703,395.0,376.0
1887,1685095402739,496.0,431.0
1888,1685095402739,486.0,463.0
1889,1685095402739,372.0,389.0
1890,1685095402771,422.0,403.0
1891,1685095402771,402.0,441.0
1892,1685095402771,393.0,417.0
1893,1685095402771,366.0,450.0
1894,1685095402804,441.0,438.0
1895,1685095402804,386.0,478.0
1896,1685095402804,481.0,433.0
1897,1685095402834,403.0,468.0
1898,1685095402834,501.0,440.0
1899,1685095402834,461.0,446.0
1900,1685095402834,487.0,434.0
1901,1685095402866,447.0,393.0
1902,1685095402866,515.0,451.0
1903,1685095402866,407.0,415.0
1904,1685095402898,434.0,391.0
1905,1685095402898,502.0,453.0
1906,1685095402898,396.0,423.0
1907,1685095402898,362.0,382.0
1908,1685095402932,383.0,437.0
1909,1685095402932,420.0,432.0
1910,1685095402932,373.0,464.0
1911,1685095402932,485.0,459.0
1912,1685095402973,399.0,474.0
1913,1685095402973,502.0,440.0
1914,1685095402973,428.0,476.0
1915,1685095403004,490.0,424.0
1916,1685095403004,473.0,437.0
1917,1685095403004,487.0,452.0
1918,1685095403004,398.0,373.0
1919,1685095403039,496.0,433.0
1920,1685095403039,452.0,447.0
1921,1685095403039,370.0,386.0
1922,1685095403071,436.0,408.0
1923,1685095403071,414.0,443.0
1924,1685095403071,384.0,422.0
1925,1685095403071,364.0,435.0
1926,1685095403102,443.0,444.0
1927,1685095403102,392.0,458.0
1928,1685095403102,482.0,437.0
1929,1685095403134,402.0,470.0
1930,1685095403134,498.0,430.0
1931,1685095403134,454.0,451.0
1932,1685095403134,473.0,435.0
1933,1685095403166,450.0,385.0
1934,1685095403166,502.0,454.0
1935,1685095403166,391.0,392.0
1936,1685095403202,442.0,402.0
1937,1685095403202,505.0,454.0
1938,1685095403202,389.0,410.0
1939,1685095403202,382.0,406.0
1940,1685095403229,406.0,440.0
1941,1685095403229,438.0,452.0
1942,1685095403229,381.0,468.0
1943,1685095403229,475.0,442.0
1944,1685095403273,387.0,472.0
1945,1685095403273,481.0,435.0
1946,1685095403273,412.0,452.0
1947,1685095403305,493.0,438.0
1948,1685095403305,460.0,438.0
1949,1685095403305,482.0,451.0
1950,1685095403305,402.0,377.0
1951,1685095403340,510.0,446.0
1952,1685095403340,451.0,427.0
1953,1685095403340,377.0,386.0
1954,1685095403371,452.0,423.0
1955,1685095403371,418.0,441.0
1956,1685095403371,376.0,404.0
1957,1685095403371,358.0,438.0
1958,1685095403403,438.0,437.0
1959,1685095403403,386.0,471.0
1960,1685095403403,477.0,430.0
1961,1685095403434,395.0,471.0
1962,1685095403434,503.0,429.0
1963,1685095403434,450.0,459.0
1964,1685095403434,476.0,429.0
1965,1685095403465,459.0,406.0
1966,1685095403465,524.0,464.0
1967,1685095403465,403.0,388.0
1968,1685095403497,467.0,416.0
1969,1685095403497,496.0,461.0
1970,1685095403497,384.0,408.0
1971,1685095403497,384.0,389.0
1972,1685095403528,387.0,432.0
1973,1685095403528,412.0,428.0
1974,1685095403528,364.0,467.0
1975,1685095403528,463.0,444.0
1976,1685095403573,397.0,486.0
1977,1685095403573,497.0,443.0
1978,1685095403573,424.0,458.0
1979,1685095403606,504.0,437.0
1980,1685095403606,471.0,437.0
1981,1685095403606,485.0,454.0
1982,1685095403606,411.0,379.0
1983,1685095403640,501.0,442.0
1984,1685095403640,422.0,419.0
1985,1685095403640,379.0,386.0
1986,1685095403671,467.0,447.0
1987,1685095403671,405.0,429.0
1988,1685095403671,373.0,410.0
1989,1685095403671,370.0,438.0
1990,1685095403704,446.0,443.0
1991,1685095403704,386.0,470.0
1992,1685095403704,489.0,441.0
1993,1685095403734,399.0,474.0
1994,1685095403734,497.0,430.0
1995,1685095403734,438.0,450.0
1996,1685095403734,474.0,427.0
1997,1685095403766,461.0,403.0
1998,1685095403766,506.0,457.0
1999,1685095403766,393.0,397.0
2000,1685095403797,480.0,429.0
2001,1685095403797,502.0,459.0
2002,1685095403797,382.0,401.0
2003,1685095403797,402.0,411.0
2004,1685095403829,402.0,437.0
2005,1685095403829,422.0,446.0
2006,1685095403829,373.0,458.0
2007,1685095403829,445.0,444.0
2008,1685095403874,392.0,471.0
2009,1685095403874,484.0,411.0
2010,1685095403874,405.0,462.0
2011,1685095403906,493.0,435.0
2012,1685095403906,462.0,434.0
2013,1685095403906,481.0,447.0
2014,1685095403906,412.0,378.0
2015,1685095403941,521.0,448.0
2016,1685095403941,427.0,423.0
2017,1685095403941,399.0,394.0
2018,1685095403972,477.0,427.0
2019,1685095403972,401.0,428.0
2020,1685095403972,369.0,403.0
2021,1685095403972,369.0,432.0
2022,1685095404005,434.0,444.0
2023,1685095404005,389.0,473.0
2024,1685095404005,485.0,458.0
2025,1685095404036,395.0,464.0
2026,1685095404036,503.0,439.0
2027,1685095404036,430.0,453.0
2028,1685095404036,484.0,430.0
2029,1685095404074,469.0,414.0
2030,1685095404074,498.0,457.0
2031,1685095404074,397.0,383.0
2032,1685095404100,478.0,427.0
2033,1685095404100,481.0,450.0
2034,1685095404100,373.0,406.0
2035,1685095404100,409.0,397.0
2036,1685095404131,406.0,446.0
2037,1685095404131,409.0,434.0
2038,1685095404131,362.0,449.0
2039,1685095404131,452.0,444.0
2040,1685095404175,390.0,471.0
2041,1685095404175,484.0,431.0
2042,1685095404175,409.0,454.0
2043,1685095404206,506.0,445.0
2044,1685095404206,463.0,437.0
2045,1685095404206,473.0,423.0
2046,1685095404206,436.0,394.0
2047,1685095404241,515.0,459.0
2048,1685095404241,408.0,414.0
2049,1685095404241,422.0,393.0
2050,1685095404273,477.0,443.0
2051,1685095404273,392.0,410.0
2052,1685095404273,372.0,403.0
2053,1685095404273,372.0,431.0
2054,1685095404305,430.0,439.0
2055,1685095404305,398.0,471.0
2056,1685095404305,486.0,454.0
2057,1685095404336,395.0,464.0
2058,1685095404336,491.0,435.0
2059,1685095404336,428.0,460.0
2060,1685095404336,479.0,426.0
2061,1685095404367,467.0,414.0
2062,1685095404367,488.0,455.0
2063,1685095404367,400.0,386.0
2064,1685095404399,491.0,440.0
2065,1685095404399,476.0,442.0
2066,1685095404399,370.0,391.0
2067,1685095404399,424.0,419.0
2068,1685095404430,424.0,435.0
2069,1685095404430,404.0,433.0
2070,1685095404430,365.0,452.0
2071,1685095404430,448.0,434.0
2072,1685095404475,390.0,473.0
2073,1685095404475,482.0,441.0
2074,1685095404475,400.0,468.0
2075,1685095404506,492.0,426.0
2076,1685095404506,462.0,452.0
2077,1685095404506,475.0,430.0
2078,1685095404506,423.0,386.0
2079,1685095404543,513.0,464.0
2080,1685095404543,407.0,399.0
2081,1685095404543,435.0,418.0
2082,1685095404574,502.0,444.0
2083,1685095404574,399.0,440.0
2084,1685095404574,377.0,404.0
2085,1685095404574,384.0,440.0
2086,1685095404606,434.0,442.0
2087,1685095404606,386.0,467.0
2088,1685095404606,474.0,453.0
2089,1685095404642,384.0,462.0
2090,1685095404642,495.0,445.0
2091,1685095404642,421.0,460.0
2092,1685095404642,488.0,437.0
2093,1685095404670,472.0,431.0
2094,1685095404670,488.0,438.0
2095,1685095404670,400.0,374.0
2096,1685095404702,497.0,440.0
2097,1685095404702,465.0,440.0
2098,1685095404702,368.0,389.0
2099,1685095404702,435.0,408.0
2100,1685095404733,409.0,438.0
2101,1685095404733,387.0,418.0
2102,1685095404733,361.0,453.0
2103,1685095404733,443.0,446.0
2104,1685095404776,391.0,471.0
2105,1685095404776,491.0,445.0
2106,1685095404776,407.0,468.0
2107,1685095404808,504.0,437.0
2108,1685095404808,456.0,451.0
2109,1685095404808,477.0,439.0
2110,1685095404808,454.0,410.0
2111,1685095404842,511.0,443.0
2112,1685095404842,391.0,398.0
2113,1685095404842,439.0,400.0
2114,1685095404874,492.0,456.0
2115,1685095404874,389.0,428.0
2116,1685095404874,378.0,398.0
2117,1685095404874,391.0,444.0
2118,1685095404907,430.0,444.0
2119,1685095404907,387.0,466.0
2120,1685095404907,474.0,449.0
2121,1685095404937,395.0,473.0
2122,1685095404937,498.0,437.0
2123,1685095404937,425.0,455.0
2124,1685095404937,487.0,422.0
2125,1685095404969,474.0,428.0
2126,1685095404969,476.0,430.0
2127,1685095404969,393.0,377.0
2128,1685095405001,506.0,445.0
2129,1685095405001,450.0,432.0
2130,1685095405001,371.0,388.0
2131,1685095405001,456.0,427.0
2132,1685095405032,417.0,437.0
2133,1685095405032,387.0,420.0
2134,1685095405032,368.0,441.0
2135,1685095405032,446.0,445.0
2136,1685095405077,394.0,478.0
2137,1685095405077,480.0,442.0
2138,1685095405077,391.0,469.0
2139,1685095405108,491.0,426.0
2140,1685095405108,445.0,454.0
2141,1685095405108,466.0,429.0
2142,1685095405108,455.0,404.0
2143,1685095405144,519.0,451.0
2144,1685095405144,396.0,399.0
2145,1685095405144,463.0,417.0
2146,1685095405176,506.0,449.0
2147,1685095405176,392.0,427.0
2148,1685095405176,382.0,392.0
2149,1685095405176,393.0,439.0
2150,1685095405207,425.0,448.0
2151,1685095405207,361.0,460.0
2152,1685095405207,466.0,450.0
2153,1685095405240,389.0,471.0
2154,1685095405240,493.0,431.0
2155,1685095405240,425.0,462.0
2156,1685095405240,492.0,436.0
2157,1685095405270,487.0,454.0
2158,1685095405270,490.0,439.0
2159,1685095405270,415.0,368.0
2160,1685095405303,516.0,447.0
2161,1685095405303,427.0,415.0
2162,1685095405303,367.0,380.0
2163,1685095405303,456.0,428.0
2164,1685095405334,399.0,426.0
2165,1685095405334,361.0,402.0
2166,1685095405334,368.0,441.0
2167,1685095405334,451.0,454.0
2168,1685095405378,389.0,475.0
2169,1685095405378,491.0,441.0
2170,1685095405378,411.0,474.0
2171,1685095405409,504.0,442.0
2172,1685095405409,450.0,453.0
2173,1685095405409,480.0,422.0
2174,1685095405409,461.0,410.0
2175,1685095405444,511.0,454.0
2176,1685095405444,382.0,383.0
2177,1685095405444,462.0,418.0
2178,1685095405475,497.0,440.0
2179,1685095405475,382.0,420.0
2180,1685095405475,390.0,392.0
2181,1685095405475,404.0,449.0
2182,1685095405507,428.0,439.0
2183,1685095405507,371.0,448.0
2184,1685095405507,469.0,450.0
2185,1685095405541,397.0,470.0
2186,1685095405541,493.0,425.0
2187,1685095405541,417.0,467.0
2188,1685095405541,491.0,430.0
2189,1685095405571,466.0,441.0
2190,1685095405571,479.0,445.0
2191,1685095405571,413.0,376.0
2192,1685095405601,506.0,449.0
2193,1685095405601,420.0,416.0
2194,1685095405601,397.0,389.0
2195,1685095405601,468.0,434.0
2196,1685095405634,408.0,420.0
2197,1685095405634,376.0,411.0
2198,1685095405634,373.0,434.0
2199,1685095405634,448.0,441.0
2200,1685095405678,382.0,470.0
2201,1685095405678,472.0,444.0
2202,1685095405678,386.0,453.0
2203,1685095405710,491.0,438.0
2204,1685095405710,436.0,454.0
2205,1685095405710,477.0,438.0
2206,1685095405710,464.0,402.0
2207,1685095405746,512.0,457.0
2208,1685095405746,388.0,370.0
2209,1685095405746,483.0,426.0
2210,1685095405776,500.0,469.0
2211,1685095405776,377.0,404.0
2212,1685095405776,396.0,402.0
2213,1685095405776,408.0,450.0
2214,1685095405808,408.0,424.0
2215,1685095405808,353.0,446.0
2216,1685095405808,457.0,452.0
2217,1685095405839,392.0,476.0
2218,1685095405839,496.0,442.0
2219,1685095405839,410.0,476.0
2220,1685095405839,507.0,433.0
2221,1685095405870,484.0,450.0
2222,1685095405870,484.0,444.0
2223,1685095405870,426.0,381.0
2224,1685095405904,519.0,454.0
2225,1685095405904,414.0,418.0
2226,1685095405904,398.0,392.0
2227,1685095405904,470.0,432.0
2228,1685095405941,394.0,430.0
2229,1685095405941,369.0,406.0
2230,1685095405941,371.0,438.0
2231,1685095405941,446.0,451.0
2232,1685095405978,386.0,472.0
2233,1685095405978,482.0,447.0
2234,1685095405978,398.0,464.0
2235,1685095406011,499.0,439.0
2236,1685095406011,443.0,456.0
2237,1685095406011,480.0,423.0
2238,1685095406011,462.0,410.0
2239,1685095406045,504.0,454.0
2240,1685095406045,386.0,381.0
2241,1685095406045,484.0,414.0
2242,1685095406078,492.0,463.0
2243,1685095406078,383.0,392.0
2244,1685095406078,419.0,413.0
2245,1685095406078,406.0,430.0
2246,1685095406108,400.0,442.0
2247,1685095406108,364.0,445.0
2248,1685095406108,461.0,449.0
2249,1685095406140,390.0,468.0
2250,1685095406140,487.0,437.0
2251,1685095406140,400.0,455.0
2252,1685095406140,495.0,441.0
2253,1685095406172,460.0,435.0
2254,1685095406172,477.0,445.0
2255,1685095406172,432.0,395.0
2256,1685095406203,512.0,457.0
2257,1685095406203,417.0,406.0
2258,1685095406203,403.0,388.0
2259,1685095406203,488.0,452.0
2260,1685095406235,406.0,434.0
2261,1685095406235,378.0,394.0
2262,1685095406235,381.0,442.0
2263,1685095406235,441.0,439.0
2264,1685095406279,387.0,468.0
2265,1685095406279,482.0,450.0
2266,1685095406279,388.0,474.0
2267,1685095406310,495.0,437.0
2268,1685095406310,430.0,462.0
2269,1685095406310,483.0,425.0
2270,1685095406310,465.0,423.0
2271,1685095406345,495.0,448.0
2272,1685095406345,397.0,390.0
2273,1685095406345,476.0,406.0
2274,1685095406378,495.0,466.0
2275,1685095406378,367.0,395.0
2276,1685095406378,425.0,412.0
2277,1685095406378,413.0,436.0
2278,1685095406409,391.0,429.0
2279,1685095406409,364.0,444.0
2280,1685095406409,450.0,445.0
2281,1685095406440,387.0,480.0
2282,1685095406440,481.0,443.0
2283,1685095406440,402.0,461.0
2284,1685095406440,500.0,446.0
2285,1685095406471,458.0,453.0
2286,1685095406471,475.0,436.0
2287,1685095406471,446.0,397.0
2288,1685095406503,511.0,455.0
2289,1685095406503,401.0,400.0
2290,1685095406503,421.0,389.0
2291,1685095406503,489.0,447.0
2292,1685095406534,404.0,426.0
2293,1685095406534,375.0,410.0
2294,1685095406534,384.0,433.0
2295,1685095406534,435.0,441.0
2296,1685095406580,386.0,476.0
2297,1685095406580,480.0,447.0
2298,1685095406580,404.0,464.0
2299,1685095406611,499.0,444.0
2300,1685095406611,419.0,457.0
2301,1685095406611,485.0,432.0
2302,1685095406611,467.0,429.0
2303,1685095406647,483.0,451.0
2304,1685095406647,394.0,366.0
2305,1685095406647,495.0,426.0
2306,1685095406678,466.0,453.0
2307,1685095406678,377.0,395.0
2308,1685095406678,425.0,411.0
2309,1685095406678,414.0,439.0
2310,1685095406711,394.0,425.0
2311,1685095406711,385.0,457.0
2312,1685095406711,455.0,443.0
2313,1685095406742,391.0,465.0
2314,1685095406742,480.0,433.0
2315,1685095406742,393.0,460.0
2316,1685095406742,493.0,438.0
2317,1685095406774,453.0,450.0
2318,1685095406774,465.0,439.0
2319,1685095406774,441.0,387.0
2320,1685095406805,507.0,461.0
2321,1685095406805,395.0,393.0
2322,1685095406805,441.0,408.0
2323,1685095406805,498.0,451.0
2324,1685095406837,398.0,417.0
2325,1685095406837,386.0,408.0
2326,1685095406837,389.0,443.0
2327,1685095406837,423.0,441.0
2328,1685095406881,381.0,460.0
2329,1685095406881,482.0,458.0
2330,1685095406881,401.0,461.0
2331,1685095406913,502.0,445.0
2332,1685095406913,417.0,455.0
2333,1685095406913,496.0,443.0
2334,1685095406913,473.0,428.0
2335,1685095406947,485.0,442.0
2336,1685095406947,397.0,380.0
2337,1685095406947,499.0,438.0
2338,1685095406979,459.0,454.0
2339,1685095406979,365.0,385.0
2340,1685095406979,436.0,414.0
2341,1685095406979,421.0,436.0
2342,1685095407010,386.0,415.0
2343,1685095407010,365.0,445.0
2344,1685095407010,446.0,452.0
2345,1685095407042,389.0,469.0
2346,1685095407042,485.0,436.0
2347,1685095407042,393.0,458.0
2348,1685095407042,505.0,440.0
2349,1685095407073,457.0,454.0
2350,1685095407073,471.0,429.0
2351,1685095407073,458.0,398.0
2352,1685095407105,516.0,465.0
2353,1685095407105,386.0,381.0
2354,1685095407105,444.0,403.0
2355,1685095407105,505.0,463.0
2356,1685095407136,406.0,413.0
2357,1685095407136,390.0,413.0
2358,1685095407136,391.0,423.0
2359,1685095407136,429.0,451.0
2360,1685095407180,378.0,459.0
2361,1685095407180,473.0,459.0
2362,1685095407180,392.0,468.0
2363,1685095407212,497.0,437.0
2364,1685095407212,421.0,462.0
2365,1685095407212,493.0,432.0
2366,1685095407212,465.0,440.0
2367,1685095407247,482.0,442.0
2368,1685095407247,407.0,386.0
2369,1685095407247,514.0,452.0
2370,1685095407279,444.0,423.0
2371,1685095407279,377.0,389.0
2372,1685095407279,449.0,416.0
2373,1685095407279,405.0,432.0
2374,1685095407311,385.0,420.0
2375,1685095407311,367.0,441.0
2376,1685095407311,437.0,441.0
2377,1685095407345,391.0,471.0
2378,1685095407345,482.0,431.0
2379,1685095407345,396.0,463.0
2380,1685095407345,505.0,445.0
2381,1685095407374,448.0,455.0
2382,1685095407374,478.0,429.0
2383,1685095407374,465.0,412.0
2384,1685095407406,512.0,455.0
2385,1685095407406,385.0,376.0
2386,1685095407406,454.0,423.0
2387,1685095407406,504.0,455.0
2388,1685095407437,380.0,412.0
2389,1685095407437,385.0,393.0
2390,1685095407437,399.0,442.0
2391,1685095407437,424.0,440.0
2392,1685095407481,376.0,461.0
2393,1685095407481,471.0,443.0
2394,1685095407481,394.0,470.0
2395,1685095407513,496.0,448.0
2396,1685095407513,416.0,465.0
2397,1685095407513,498.0,438.0
2398,1685095407513,472.0,437.0
2399,1685095407548,475.0,452.0
2400,1685095407548,404.0,361.0
2401,1685095407548,510.0,443.0
2402,1685095407579,426.0,420.0
2403,1685095407579,379.0,392.0
2404,1685095407579,466.0,430.0
2405,1685095407579,402.0,420.0
2406,1685095407611,380.0,422.0
2407,1685095407611,369.0,432.0
2408,1685095407611,448.0,454.0
2409,1685095407642,390.0,465.0
2410,1685095407642,483.0,452.0
2411,1685095407642,395.0,458.0
2412,1685095407642,508.0,445.0
2413,1685095407674,436.0,457.0
2414,1685095407674,473.0,430.0
2415,1685095407674,463.0,404.0
2416,1685095407713,506.0,454.0
2417,1685095407713,374.0,378.0
2418,1685095407713,472.0,424.0
2419,1685095407713,510.0,454.0
2420,1685095407737,390.0,410.0
2421,1685095407737,400.0,404.0
2422,1685095407737,410.0,437.0
2423,1685095407737,417.0,441.0
2424,1685095407782,362.0,454.0
2425,1685095407782,459.0,451.0
2426,1685095407782,389.0,476.0
2427,1685095407814,488.0,443.0
2428,1685095407814,406.0,453.0
2429,1685095407814,495.0,424.0
2430,1685095407814,474.0,444.0
2431,1685095407849,487.0,446.0
2432,1685095407849,421.0,370.0
2433,1685095407849,531.0,461.0
2434,1685095407881,421.0,419.0
2435,1685095407881,395.0,387.0
2436,1685095407881,470.0,422.0
2437,1685095407881,403.0,428.0
2438,1685095407912,368.0,405.0
2439,1685095407912,365.0,437.0
2440,1685095407912,432.0,443.0
2441,1685095407944,388.0,474.0
2442,1685095407944,482.0,448.0
2443,1685095407944,394.0,463.0
2444,1685095407944,509.0,448.0
2445,1685095407975,443.0,450.0
2446,1685095407975,482.0,438.0
2447,1685095407975,461.0,412.0
2448,1685095408007,500.0,461.0
2449,1685095408007,385.0,377.0
2450,1685095408007,473.0,418.0
2451,1685095408007,488.0,459.0
2452,1685095408038,378.0,391.0
2453,1685095408038,395.0,407.0
2454,1685095408038,413.0,444.0
2455,1685095408038,418.0,436.0
2456,1685095408083,377.0,465.0
2457,1685095408083,466.0,447.0
2458,1685095408083,395.0,477.0
2459,1685095408114,487.0,441.0
2460,1685095408114,406.0,456.0
2461,1685095408114,483.0,434.0
2462,1685095408114,456.0,434.0
2463,1685095408149,484.0,442.0
2464,1685095408149,419.0,382.0
2465,1685095408149,506.0,466.0
2466,1685095408181,414.0,428.0
2467,1685095408181,406.0,412.0
2468,1685095408181,478.0,448.0
2469,1685095408181,400.0,439.0
2470,1685095408212,382.0,404.0
2471,1685095408212,388.0,432.0
2472,1685095408212,448.0,449.0
2473,1685095408244,404.0,473.0
2474,1685095408244,474.0,454.0
2475,1685095408244,388.0,462.0
2476,1685095408244,498.0,424.0
2477,1685095408275,435.0,465.0
2478,1685095408275,480.0,428.0
2479,1685095408275,467.0,428.0
2480,1685095408307,505.0,450.0
2481,1685095408307,396.0,386.0
2482,1685095408307,488.0,423.0
2483,1685095408307,482.0,448.0
2484,1685095408338,367.0,395.0
2485,1685095408338,409.0,409.0
2486,1685095408338,417.0,430.0
2487,1685095408338,405.0,426.0
2488,1685095408383,368.0,444.0
2489,1685095408383,442.0,452.0
2490,1685095408383,379.0,468.0
2491,1685095408415,496.0,439.0
2492,1685095408415,407.0,457.0
2493,1685095408415,509.0,448.0
2494,1685095408415,465.0,434.0
2495,1685095408450,472.0,436.0
2496,1685095408450,427.0,388.0
2497,1685095408450,514.0,446.0
2498,1685095408482,416.0,412.0
2499,1685095408482,404.0,394.0
2500,1685095408482,486.0,446.0
2501,1685095408482,393.0,423.0
2502,1685095408513,361.0,401.0
2503,1685095408513,374.0,419.0
2504,1685095408513,439.0,454.0
2505,1685095408546,390.0,464.0
2506,1685095408546,490.0,460.0
2507,1685095408546,390.0,472.0
2508,1685095408546,499.0,442.0
2509,1685095408578,441.0,459.0
2510,1685095408578,470.0,416.0
2511,1685095408578,466.0,421.0
2512,1685095408609,493.0,451.0
2513,1685095408609,385.0,368.0
2514,1685095408609,500.0,449.0
2515,1685095408609,490.0,456.0
2516,1685095408641,369.0,400.0
2517,1685095408641,417.0,396.0
2518,1685095408641,425.0,446.0
2519,1685095408641,401.0,429.0
2520,1685095408684,360.0,451.0
2521,1685095408684,448.0,437.0
2522,1685095408684,385.0,478.0
2523,1685095408716,483.0,439.0
2524,1685095408716,403.0,465.0
2525,1685095408716,494.0,431.0
2526,1685095408716,465.0,458.0
2527,1685095408751,475.0,437.0
2528,1685095408751,426.0,385.0
2529,1685095408751,520.0,462.0
2530,1685095408782,410.0,407.0
2531,1685095408782,424.0,402.0
2532,1685095408782,497.0,455.0
2533,1685095408782,398.0,431.0
2534,1685095408813,368.0,398.0
2535,1685095408813,379.0,446.0
2536,1685095408813,442.0,449.0
2537,1685095408845,384.0,474.0
2538,1685095408845,485.0,451.0
2539,1685095408845,387.0,472.0
2540,1685095408845,494.0,445.0
2541,1685095408877,437.0,455.0
2542,1685095408877,482.0,433.0
2543,1685095408877,471.0,421.0
2544,1685095408908,489.0,446.0
2545,1685095408908,397.0,380.0
2546,1685095408908,506.0,436.0
2547,1685095408908,477.0,449.0
2548,1685095408939,362.0,386.0
2549,1685095408939,426.0,411.0
2550,1685095408939,416.0,456.0
2551,1685095408939,393.0,419.0
2552,1685095408985,358.0,446.0
2553,1685095408985,453.0,445.0
2554,1685095408985,391.0,474.0
2555,1685095409017,488.0,446.0
2556,1685095409017,402.0,479.0
2557,1685095409017,499.0,432.0
2558,1685095409017,465.0,456.0
2559,1685095409052,474.0,430.0
2560,1685095409052,442.0,392.0
2561,1685095409052,518.0,456.0
2562,1685095409084,399.0,397.0
2563,1685095409084,434.0,407.0
2564,1685095409084,506.0,454.0
2565,1685095409084,403.0,428.0
2566,1685095409116,374.0,398.0
2567,1685095409116,384.0,433.0
2568,1685095409116,416.0,436.0
2569,1685095409147,375.0,468.0
2570,1685095409147,475.0,448.0
2571,1685095409147,391.0,470.0
2572,1685095409147,500.0,437.0
2573,1685095409178,429.0,461.0
2574,1685095409178,484.0,428.0
2575,1685095409178,473.0,433.0
2576,1685095409210,486.0,450.0
2577,1685095409210,403.0,373.0
2578,1685095409210,499.0,441.0
2579,1685095409210,449.0,435.0
2580,1685095409242,365.0,387.0
2581,1685095409242,431.0,406.0
2582,1685095409242,397.0,438.0
2583,1685095409242,392.0,424.0
2584,1685095409285,361.0,439.0
2585,1685095409285,459.0,445.0
2586,1685095409285,378.0,476.0
2587,1685095409317,490.0,441.0
2588,1685095409317,401.0,473.0
2589,1685095409317,493.0,432.0
2590,1685095409317,459.0,458.0
2591,1685095409352,468.0,438.0
2592,1685095409352,446.0,402.0
2593,1685095409352,515.0,458.0
2594,1685095409383,394.0,377.0
2595,1685095409383,453.0,405.0
2596,1685095409383,506.0,462.0
2597,1685095409383,401.0,417.0
2598,1685095409415,381.0,403.0
2599,1685095409415,394.0,449.0
2600,1685095409415,428.0,440.0
2601,1685095409448,367.0,466.0
2602,1685095409448,471.0,445.0
2603,1685095409448,389.0,472.0
2604,1685095409448,493.0,442.0
2605,1685095409479,421.0,461.0
2606,1685095409479,482.0,430.0
2607,1685095409479,471.0,428.0
2608,1685095409510,489.0,449.0
2609,1685095409510,402.0,373.0
2610,1685095409510,512.0,448.0
2611,1685095409510,463.0,425.0
2612,1685095409541,368.0,385.0
2613,1685095409541,447.0,421.0
2614,1685095409541,414.0,439.0
2615,1685095409541,379.0,419.0
2616,1685095409586,364.0,437.0
2617,1685095409586,451.0,445.0
2618,1685095409586,395.0,479.0
2619,1685095409618,487.0,447.0
2620,1685095409618,394.0,460.0
2621,1685095409618,503.0,448.0
2622,1685095409618,460.0,452.0
2623,1685095409653,478.0,428.0
2624,1685095409653,449.0,395.0
2625,1685095409653,518.0,466.0
2626,1685095409686,397.0,382.0
2627,1685095409686,451.0,425.0
2628,1685095409686,508.0,445.0
2629,1685095409686,390.0,427.0
2630,1685095409718,376.0,401.0
2631,1685095409718,397.0,453.0
2632,1685095409718,419.0,432.0
2633,1685095409752,367.0,449.0
2634,1685095409752,477.0,453.0
2635,1685095409752,395.0,475.0
2636,1685095409752,500.0,437.0
2637,1685095409781,423.0,458.0
2638,1685095409781,491.0,432.0
2639,1685095409781,479.0,426.0
2640,1685095409812,487.0,445.0
2641,1685095409812,395.0,368.0
2642,1685095409812,504.0,435.0
2643,1685095409812,435.0,434.0
2644,1685095409845,370.0,388.0
2645,1685095409845,450.0,419.0
2646,1685095409845,407.0,439.0
2647,1685095409845,378.0,431.0
2648,1685095409887,360.0,439.0
2649,1685095409887,457.0,459.0
2650,1685095409887,384.0,466.0
2651,1685095409919,478.0,437.0
2652,1685095409919,394.0,466.0
2653,1685095409919,496.0,426.0
2654,1685095409919,443.0,453.0
2655,1685095409953,471.0,422.0
2656,1685095409953,448.0,389.0
2657,1685095409953,513.0,466.0
2658,1685095409984,395.0,388.0
2659,1685095409984,467.0,418.0
2660,1685095409984,513.0,451.0
2661,1685095409984,390.0,421.0
2662,1685095410016,395.0,399.0
2663,1685095410016,387.0,427.0
2664,1685095410016,419.0,452.0
2665,1685095410047,364.0,450.0
2666,1685095410047,471.0,445.0
2667,1685095410047,395.0,477.0
2668,1685095410047,488.0,436.0
2669,1685095410079,415.0,463.0
2670,1685095410079,491.0,433.0
2671,1685095410079,467.0,429.0
2672,1685095410110,490.0,452.0
2673,1685095410110,407.0,373.0
2674,1685095410110,522.0,455.0
2675,1685095410110,433.0,432.0
2676,1685095410142,377.0,385.0
2677,1685095410142,468.0,421.0
2678,1685095410142,399.0,424.0
2679,1685095410142,371.0,417.0
2680,1685095410188,360.0,439.0
2681,1685095410188,451.0,460.0
2682,1685095410188,385.0,467.0
2683,1685095410219,475.0,436.0
2684,1685095410219,399.0,464.0
2685,1685095410219,511.0,437.0
2686,1685095410219,443.0,451.0
2687,1685095410254,481.0,430.0
2688,1685095410254,473.0,415.0
2689,1685095410254,515.0,456.0
2690,1685095410286,387.0,381.0
2691,1685095410286,465.0,415.0
2692,1685095410286,502.0,454.0
2693,1685095410286,387.0,420.0
2694,1685095410317,389.0,400.0
2695,1685095410317,395.0,433.0
2696,1685095410317,405.0,429.0
2697,1685095410349,355.0,455.0
2698,1685095410349,476.0,457.0
2699,1685095410349,397.0,469.0
2700,1685095410349,501.0,443.0
2701,1685095410382,420.0,467.0
2702,1685095410382,500.0,435.0
2703,1685095410382,479.0,438.0
2704,1685095410412,495.0,450.0
2705,1685095410412,412.0,364.0
2706,1685095410412,503.0,454.0
2707,1685095410412,377.0,386.0
2708,1685095410445,380.0,392.0
2709,1685095410445,464.0,437.0
2710,1685095410445,392.0,440.0
2711,1685095410445,375.0,412.0
2712,1685095410488,372.0,450.0
2713,1685095410488,459.0,442.0
2714,1685095410488,384.0,470.0
2715,1685095410520,481.0,448.0
2716,1685095410520,397.0,466.0
2717,1685095410520,501.0,439.0
2718,1685095410520,430.0,445.0
2719,1685095410554,471.0,432.0
2720,1685095410554,459.0,396.0
2721,1685095410554,500.0,454.0
2722,1685095410585,381.0,384.0
2723,1685095410585,469.0,412.0
2724,1685095410585,500.0,458.0
2725,1685095410585,375.0,414.0
2726,1685095410619,402.0,410.0
2727,1685095410619,407.0,444.0
2728,1685095410619,425.0,438.0
2729,1685095410649,369.0,464.0
2730,1685095410649,460.0,440.0
2731,1685095410649,389.0,476.0
2732,1685095410649,485.0,434.0
2733,1685095410680,403.0,453.0
2734,1685095410680,488.0,428.0
2735,1685095410680,474.0,443.0
2736,1685095410712,473.0,440.0
2737,1685095410712,421.0,383.0
2738,1685095410712,525.0,463.0
2739,1685095410712,431.0,423.0
2740,1685095410743,409.0,399.0
2741,1685095410743,483.0,430.0
2742,1685095410743,401.0,427.0
2743,1685095410743,372.0,402.0
2744,1685095410788,361.0,437.0
2745,1685095410788,436.0,450.0
2746,1685095410788,373.0,462.0
2747,1685095410821,480.0,444.0
2748,1685095410821,397.0,474.0
2749,1685095410821,511.0,440.0
2750,1685095410821,445.0,467.0
2751,1685095410855,486.0,434.0
2752,1685095410855,477.0,417.0
2753,1685095410855,506.0,462.0
2754,1685095410887,391.0,377.0
2755,1685095410887,475.0,425.0
2756,1685095410887,482.0,446.0
2757,1685095410887,357.0,394.0
2758,1685095410919,405.0,412.0
2759,1685095410919,395.0,432.0
2760,1685095410919,407.0,431.0
2761,1685095410950,357.0,455.0
2762,1685095410950,464.0,456.0
2763,1685095410950,392.0,465.0
2764,1685095410950,503.0,454.0
2765,1685095410982,413.0,472.0
2766,1685095410982,503.0,432.0
2767,1685095410982,478.0,449.0
2768,1685095411013,473.0,426.0
2769,1685095411013,428.0,391.0
2770,1685095411013,506.0,445.0
2771,1685095411013,403.0,408.0
2772,1685095411045,400.0,385.0
2773,1685095411045,479.0,444.0
2774,1685095411045,393.0,413.0
2775,1685095411045,384.0,415.0
2776,1685095411090,386.0,439.0
2777,1685095411090,457.0,454.0
2778,1685095411090,389.0,470.0
2779,1685095411121,484.0,449.0
2780,1685095411121,395.0,464.0
2781,1685095411121,496.0,436.0
2782,1685095411121,422.0,459.0
2783,1685095411156,468.0,421.0
2784,1685095411156,456.0,414.0
2785,1685095411156,495.0,457.0
2786,1685095411188,387.0,375.0
2787,1685095411188,490.0,430.0
2788,1685095411188,498.0,461.0
2789,1685095411188,380.0,401.0
2790,1685095411219,423.0,407.0
2791,1685095411219,416.0,445.0
2792,1685095411219,415.0,436.0
2793,1685095411250,361.0,444.0
2794,1685095411250,447.0,442.0
2795,1685095411250,383.0,466.0
2796,1685095411250,476.0,429.0
2797,1685095411282,386.0,457.0
2798,1685095411282,495.0,428.0
2799,1685095411282,454.0,437.0
2800,1685095411313,476.0,442.0
2801,1685095411313,447.0,403.0
2802,1685095411313,531.0,464.0
2803,1685095411313,414.0,400.0
2804,1685095411345,419.0,395.0
2805,1685095411345,489.0,453.0
2806,1685095411345,394.0,420.0
2807,1685095411345,368.0,399.0
2808,1685095411390,365.0,429.0
2809,1685095411390,424.0,438.0
2810,1685095411390,372.0,469.0
2811,1685095411421,488.0,456.0
2812,1685095411421,392.0,473.0
2813,1685095411421,513.0,450.0
2814,1685095411421,437.0,455.0
2815,1685095411457,494.0,432.0
2816,1685095411457,478.0,429.0
2817,1685095411457,494.0,443.0
2818,1685095411488,382.0,371.0
2819,1685095411488,487.0,435.0
2820,1685095411488,472.0,452.0
2821,1685095411488,356.0,396.0
2822,1685095411520,418.0,412.0
2823,1685095411520,410.0,451.0
2824,1685095411520,400.0,432.0
2825,1685095411551,368.0,447.0
2826,1685095411551,465.0,455.0
2827,1685095411551,399.0,477.0
2828,1685095411551,498.0,455.0
2829,1685095411583,404.0,466.0
2830,1685095411583,498.0,430.0
2831,1685095411583,463.0,447.0
2832,1685095411615,472.0,422.0
2833,1685095411615,435.0,388.0
2834,1685095411615,508.0,456.0
2835,1685095411615,394.0,398.0
2836,1685095411646,420.0,409.0
2837,1685095411646,503.0,447.0
2838,1685095411646,406.0,437.0
2839,1685095411646,392.0,409.0
2840,1685095411691,386.0,435.0
2841,1685095411691,444.0,444.0
2842,1685095411691,398.0,483.0
2843,1685095411723,487.0,449.0
2844,1685095411723,383.0,472.0
2845,1685095411723,490.0,432.0
2846,1685095411723,416.0,453.0
2847,1685095411757,474.0,439.0
2848,1685095411757,460.0,409.0
2849,1685095411757,489.0,454.0
2850,1685095411790,392.0,369.0
2851,1685095411790,505.0,439.0
2852,1685095411790,479.0,446.0
2853,1685095411790,369.0,402.0
2854,1685095411823,434.0,401.0
2855,1685095411823,408.0,448.0
2856,1685095411823,398.0,425.0
2857,1685095411851,361.0,442.0
2858,1685095411851,446.0,448.0
2859,1685095411851,382.0,468.0
2860,1685095411851,480.0,449.0
2861,1685095411882,392.0,467.0
2862,1685095411882,501.0,438.0
2863,1685095411882,463.0,449.0
2864,1685095411914,476.0,434.0
2865,1685095411914,454.0,399.0
2866,1685095411914,517.0,452.0
2867,1685095411914,404.0,395.0
2868,1685095411945,437.0,398.0
2869,1685095411945,503.0,467.0
2870,1685095411945,390.0,434.0
2871,1685095411945,372.0,400.0
2872,1685095411992,377.0,436.0
2873,1685095411992,419.0,439.0
2874,1685095411992,377.0,468.0
2875,1685095412022,480.0,453.0
2876,1685095412022,396.0,484.0
2877,1685095412022,501.0,441.0
2878,1685095412022,435.0,472.0
2879,1685095412058,497.0,430.0
2880,1685095412058,478.0,422.0
2881,1685095412058,491.0,437.0
2882,1685095412090,387.0,367.0
2883,1685095412090,493.0,444.0
2884,1685095412090,455.0,427.0
2885,1685095412090,358.0,391.0
2886,1685095412122,438.0,417.0
2887,1685095412122,406.0,450.0
2888,1685095412122,380.0,421.0
2889,1685095412153,359.0,444.0
2890,1685095412153,448.0,442.0
2891,1685095412153,391.0,472.0
2892,1685095412153,499.0,449.0
2893,1685095412184,403.0,462.0
2894,1685095412184,493.0,429.0
2895,1685095412184,463.0,472.0
2896,1685095412215,464.0,417.0
2897,1685095412215,449.0,401.0
2898,1685095412215,517.0,451.0
2899,1685095412215,386.0,384.0
2900,1685095412258,444.0,411.0
2901,1685095412258,516.0,464.0
2902,1685095412258,386.0,411.0
2903,1685095412258,387.0,406.0
2904,1685095412292,393.0,445.0
2905,1685095412292,440.0,460.0
2906,1685095412292,379.0,463.0
2907,1685095412323,476.0,439.0
2908,1685095412323,386.0,481.0
2909,1685095412323,495.0,437.0
2910,1685095412323,416.0,455.0
2911,1685095412358,482.0,416.0
2912,1685095412358,469.0,431.0
2913,1685095412358,489.0,445.0
2914,1685095412391,390.0,367.0
2915,1685095412391,514.0,447.0
2916,1685095412391,451.0,431.0
2917,1685095412391,359.0,385.0
2918,1685095412422,463.0,427.0
2919,1685095412422,410.0,443.0
2920,1685095412422,390.0,424.0
2921,1685095412454,372.0,447.0
2922,1685095412454,440.0,436.0
2923,1685095412454,384.0,477.0
2924,1685095412454,479.0,442.0
2925,1685095412485,395.0,465.0
2926,1685095412485,502.0,431.0
2927,1685095412485,465.0,452.0
2928,1685095412524,477.0,428.0
2929,1685095412524,454.0,391.0
2930,1685095412524,520.0,465.0
2931,1685095412524,396.0,382.0
2932,1685095412558,457.0,421.0
2933,1685095412558,510.0,472.0
2934,1685095412558,371.0,394.0
2935,1685095412558,384.0,414.0
2936,1685095412592,391.0,436.0
2937,1685095412592,414.0,438.0
2938,1685095412592,362.0,458.0
2939,1685095412624,471.0,449.0
2940,1685095412624,396.0,482.0
2941,1685095412624,506.0,446.0
2942,1685095412624,431.0,464.0
2943,1685095412659,498.0,426.0
2944,1685095412659,479.0,444.0
2945,1685095412659,477.0,438.0
2946,1685095412691,403.0,367.0
2947,1685095412691,505.0,446.0
2948,1685095412691,436.0,426.0
2949,1685095412691,363.0,383.0
2950,1685095412722,454.0,435.0
2951,1685095412722,403.0,422.0
2952,1685095412722,373.0,416.0
2953,1685095412754,371.0,441.0
2954,1685095412754,446.0,453.0
2955,1685095412754,393.0,471.0
2956,1685095412754,492.0,443.0
2957,1685095412785,394.0,463.0
2958,1685095412785,499.0,436.0
2959,1685095412785,455.0,461.0
2960,1685095412821,470.0,427.0
2961,1685095412821,454.0,398.0
2962,1685095412821,519.0,461.0
2963,1685095412821,384.0,385.0
2964,1685095412848,463.0,413.0
2965,1685095412848,515.0,467.0
2966,1685095412848,377.0,413.0
2967,1685095412848,395.0,419.0
2968,1685095412892,401.0,440.0
2969,1685095412892,427.0,435.0
2970,1685095412892,366.0,452.0
2971,1685095412923,463.0,447.0
2972,1685095412923,383.0,470.0
2973,1685095412923,484.0,434.0
2974,1685095412923,413.0,469.0
2975,1685095412959,486.0,413.0
2976,1685095412959,467.0,432.0
2977,1685095412959,480.0,443.0
2978,1685095412991,407.0,374.0
2979,1685095412991,521.0,458.0
2980,1685095412991,437.0,424.0
2981,1685095412991,381.0,384.0
2982,1685095413023,461.0,435.0
2983,1685095413023,398.0,430.0
2984,1685095413023,380.0,419.0
2985,1685095413054,360.0,435.0
2986,1685095413054,443.0,445.0
2987,1685095413054,387.0,476.0
2988,1685095413054,474.0,437.0
2989,1685095413085,393.0,458.0
2990,1685095413085,505.0,448.0
2991,1685095413085,449.0,453.0
2992,1685095413117,478.0,429.0
2993,1685095413117,471.0,403.0
2994,1685095413117,516.0,459.0
2995,1685095413117,389.0,375.0
2996,1685095413148,478.0,427.0
2997,1685095413148,486.0,445.0
2998,1685095413148,378.0,411.0
2999,1685095413148,389.0,403.0
3000,1685095413194,400.0,446.0
3001,1685095413194,405.0,434.0
3002,1685095413194,357.0,449.0
3003,1685095413226,449.0,449.0
3004,1685095413226,386.0,475.0
3005,1685095413226,492.0,444.0
3006,1685095413226,418.0,464.0
3007,1685095413261,503.0,445.0
3008,1685095413261,488.0,437.0
3009,1685095413261,484.0,441.0
3010,1685095413293,419.0,382.0
3011,1685095413293,522.0,449.0
3012,1685095413293,417.0,419.0
3013,1685095413293,394.0,392.0
3014,1685095413325,465.0,425.0
3015,1685095413325,398.0,421.0
3016,1685095413325,380.0,409.0
3017,1685095413356,366.0,438.0
3018,1685095413356,440.0,453.0
3019,1685095413356,384.0,475.0
3020,1685095413356,477.0,449.0
3021,1685095413388,391.0,468.0
3022,1685095413388,495.0,435.0
3023,1685095413388,443.0,453.0
3024,1685095413420,472.0,426.0
3025,1685095413420,463.0,412.0
3026,1685095413420,509.0,460.0
3027,1685095413420,384.0,376.0
3028,1685095413450,485.0,426.0
3029,1685095413450,501.0,468.0
3030,1685095413450,376.0,391.0
3031,1685095413450,408.0,408.0
3032,1685095413494,414.0,440.0
3033,1685095413494,409.0,439.0
3034,1685095413494,366.0,452.0
3035,1685095413526,454.0,439.0
3036,1685095413526,390.0,474.0
3037,1685095413526,484.0,440.0
3038,1685095413526,408.0,458.0
3039,1685095413560,486.0,430.0
3040,1685095413560,469.0,445.0
3041,1685095413560,475.0,442.0
3042,1685095413594,426.0,378.0
3043,1685095413594,528.0,462.0
3044,1685095413594,424.0,412.0
3045,1685095413594,411.0,394.0
3046,1685095413628,481.0,427.0
3047,1685095413628,404.0,437.0
3048,1685095413628,373.0,388.0
3049,1685095413655,375.0,433.0
3050,1685095413655,427.0,445.0
3051,1685095413655,379.0,474.0
3052,1685095413655,464.0,442.0
3053,1685095413687,386.0,466.0
3054,1685095413687,490.0,440.0
3055,1685095413687,439.0,448.0
3056,1685095413718,482.0,453.0
3057,1685095413718,463.0,401.0
3058,1685095413718,505.0,457.0
3059,1685095413718,388.0,388.0
3060,1685095413750,494.0,435.0
3061,1685095413750,485.0,455.0
3062,1685095413750,378.0,400.0
3063,1685095413750,406.0,404.0
3064,1685095413795,409.0,444.0
3065,1685095413795,394.0,434.0
3066,1685095413795,352.0,442.0
3067,1685095413827,447.0,440.0
3068,1685095413827,396.0,479.0
3069,1685095413827,489.0,446.0
3070,1685095413827,416.0,460.0
3071,1685095413862,511.0,446.0
3072,1685095413862,481.0,435.0
3073,1685095413862,484.0,443.0
3074,1685095413894,435.0,380.0
3075,1685095413894,512.0,463.0
3076,1685095413894,406.0,412.0
3077,1685095413894,412.0,397.0
3078,1685095413926,477.0,432.0
3079,1685095413926,402.0,423.0
3080,1685095413926,361.0,398.0
3081,1685095413957,379.0,429.0
3082,1685095413957,439.0,449.0
3083,1685095413957,378.0,465.0
3084,1685095413957,476.0,449.0
3085,1685095413988,390.0,465.0
3086,1685095413988,496.0,441.0
3087,1685095413988,437.0,455.0
3088,1685095414021,474.0,425.0
3089,1685095414021,469.0,425.0
3090,1685095414021,491.0,449.0
3091,1685095414021,383.0,372.0
3092,1685095414051,497.0,440.0
3093,1685095414051,476.0,456.0
3094,1685095414051,381.0,389.0
3095,1685095414051,422.0,414.0
3096,1685095414096,415.0,441.0
3097,1685095414096,409.0,435.0
3098,1685095414096,374.0,460.0
3099,1685095414128,450.0,435.0
3100,1685095414128,389.0,467.0
3101,1685095414128,476.0,425.0
3102,1685095414128,392.0,456.0
3103,1685095414162,485.0,437.0
3104,1685095414162,451.0,440.0
3105,1685095414162,474.0,428.0
3106,1685095414194,451.0,409.0
3107,1685095414194,527.0,458.0
3108,1685095414194,406.0,415.0
3109,1685095414194,436.0,404.0
3110,1685095414225,501.0,454.0
3111,1685095414225,409.0,429.0
3112,1685095414225,377.0,397.0
3113,1685095414257,387.0,440.0
3114,1685095414257,416.0,440.0
3115,1685095414257,373.0,452.0
3116,1685095414257,468.0,443.0
3117,1685095414288,391.0,475.0
3118,1685095414288,498.0,447.0
3119,1685095414288,431.0,457.0
3120,1685095414322,490.0,433.0
3121,1685095414322,489.0,423.0
3122,1685095414322,501.0,460.0
3123,1685095414322,401.0,388.0
3124,1685095414351,510.0,435.0
3125,1685095414351,471.0,449.0
3126,1685095414351,377.0,390.0
3127,1685095414351,414.0,412.0
3128,1685095414396,413.0,435.0
3129,1685095414396,384.0,425.0
3130,1685095414396,354.0,441.0
3131,1685095414429,445.0,439.0
3132,1685095414429,383.0,484.0
3133,1685095414429,484.0,440.0
3134,1685095414429,406.0,462.0
3135,1685095414463,502.0,428.0
3136,1685095414463,470.0,462.0
3137,1685095414463,484.0,429.0
3138,1685095414495,442.0,385.0
3139,1685095414495,515.0,458.0
3140,1685095414495,391.0,404.0
3141,1685095414495,436.0,388.0
3142,1685095414527,481.0,449.0
3143,1685095414527,400.0,417.0
3144,1685095414527,375.0,407.0
3145,1685095414557,387.0,449.0
3146,1685095414557,439.0,444.0
3147,1685095414557,384.0,460.0
3148,1685095414557,480.0,467.0
3149,1685095414588,396.0,462.0
3150,1685095414588,490.0,436.0
3151,1685095414588,414.0,462.0
3152,1685095414620,477.0,433.0
3153,1685095414620,464.0,414.0
3154,1685095414620,479.0,452.0
3155,1685095414620,401.0,380.0
3156,1685095414651,502.0,438.0
3157,1685095414651,468.0,449.0
3158,1685095414651,386.0,397.0
3159,1685095414651,436.0,413.0
3160,1685095414696,417.0,434.0
3161,1685095414696,407.0,439.0
3162,1685095414696,373.0,452.0
3163,1685095414728,444.0,444.0
3164,1685095414728,387.0,474.0
3165,1685095414728,463.0,425.0
3166,1685095414728,384.0,463.0
3167,1685095414763,487.0,441.0
3168,1685095414763,447.0,451.0
3169,1685095414763,466.0,436.0
3170,1685095414794,460.0,411.0
3171,1685095414794,521.0,464.0
3172,1685095414794,406.0,408.0
3173,1685095414794,459.0,408.0
3174,1685095414826,497.0,447.0
3175,1685095414826,414.0,420.0
3176,1685095414826,375.0,392.0
3177,1685095414863,389.0,436.0
3178,1685095414863,405.0,430.0
3179,1685095414863,367.0,470.0
3180,1685095414863,467.0,443.0
3181,1685095414891,392.0,473.0
3182,1685095414891,495.0,440.0
3183,1685095414891,433.0,465.0
3184,1685095414922,493.0,442.0
3185,1685095414922,482.0,425.0
3186,1685095414922,490.0,450.0
3187,1685095414922,406.0,378.0
3188,1685095414953,507.0,446.0
3189,1685095414953,451.0,438.0
3190,1685095414953,375.0,385.0
3191,1685095414953,431.0,415.0
3192,1685095414998,403.0,424.0
3193,1685095414998,376.0,416.0
3194,1685095414998,369.0,434.0
3195,1685095415030,446.0,441.0
3196,1685095415030,380.0,484.0
3197,1685095415030,492.0,446.0
3198,1685095415030,403.0,465.0
3199,1685095415064,519.0,446.0
3200,1685095415064,465.0,449.0
3201,1685095415064,469.0,420.0
3202,1685095415096,456.0,414.0
3203,1685095415096,509.0,458.0
3204,1685095415096,385.0,385.0
3205,1685095415096,450.0,423.0
3206,1685095415130,502.0,457.0
3207,1685095415130,406.0,416.0
3208,1685095415130,383.0,401.0
3209,1685095415159,398.0,439.0
3210,1685095415159,435.0,439.0
3211,1685095415159,382.0,460.0
3212,1685095415159,479.0,446.0
3213,1685095415190,391.0,472.0
3214,1685095415190,486.0,430.0
3215,1685095415190,411.0,462.0
3216,1685095415223,478.0,429.0
3217,1685095415223,464.0,429.0
3218,1685095415223,486.0,444.0
3219,1685095415223,411.0,379.0
3220,1685095415256,517.0,451.0
3221,1685095415256,448.0,430.0
3222,1685095415256,379.0,397.0
3223,1685095415256,448.0,415.0
3224,1685095415298,418.0,430.0
3225,1685095415298,393.0,425.0
3226,1685095415298,370.0,445.0
3227,1685095415330,437.0,434.0
3228,1685095415330,374.0,478.0
3229,1685095415330,472.0,436.0
3230,1685095415330,390.0,466.0
3231,1685095415364,492.0,437.0
3232,1685095415364,445.0,461.0
3233,1685095415364,477.0,434.0
3234,1685095415396,467.0,416.0
3235,1685095415396,531.0,465.0
3236,1685095415396,404.0,399.0
3237,1685095415396,471.0,419.0
3238,1685095415431,508.0,451.0
3239,1685095415431,393.0,431.0
3240,1685095415431,381.0,388.0
3241,1685095415459,385.0,432.0
3242,1685095415459,407.0,439.0
3243,1685095415459,372.0,459.0
3244,1685095415459,467.0,451.0
3245,1685095415490,385.0,469.0
3246,1685095415490,492.0,445.0
3247,1685095415490,426.0,466.0
3248,1685095415523,497.0,429.0
3249,1685095415523,487.0,436.0
3250,1685095415523,481.0,438.0
3251,1685095415523,416.0,372.0
3252,1685095415553,521.0,445.0
3253,1685095415553,420.0,413.0
3254,1685095415553,375.0,393.0
3255,1685095415553,443.0,417.0
3256,1685095415599,408.0,432.0
3257,1685095415599,373.0,417.0
3258,1685095415599,353.0,429.0
3259,1685095415630,432.0,444.0
3260,1685095415630,383.0,465.0
3261,1685095415630,486.0,446.0
3262,1685095415630,397.0,461.0
3263,1685095415666,502.0,443.0
3264,1685095415666,453.0,466.0
3265,1685095415666,470.0,425.0
3266,1685095415697,470.0,419.0
3267,1685095415697,517.0,461.0
3268,1685095415697,390.0,390.0
3269,1685095415697,470.0,419.0
3270,1685095415730,498.0,454.0
3271,1685095415730,386.0,411.0
3272,1685095415730,379.0,399.0
3273,1685095415760,402.0,449.0
3274,1685095415760,423.0,443.0
3275,1685095415760,376.0,466.0
3276,1685095415760,469.0,449.0
3277,1685095415792,384.0,466.0
3278,1685095415792,481.0,443.0
3279,1685095415792,414.0,449.0
3280,1685095415823,483.0,433.0
3281,1685095415823,472.0,440.0
3282,1685095415823,480.0,439.0
3283,1685095415823,413.0,384.0
3284,1685095415854,521.0,449.0
3285,1685095415854,429.0,429.0
3286,1685095415854,385.0,387.0
3287,1685095415854,462.0,430.0
3288,1685095415899,415.0,431.0
3289,1685095415899,376.0,417.0
3290,1685095415899,368.0,437.0
3291,1685095415931,440.0,440.0
3292,1685095415931,380.0,474.0
3293,1685095415931,478.0,428.0
3294,1685095415931,385.0,468.0
3295,1685095415966,489.0,440.0
3296,1685095415966,443.0,453.0
3297,1685095415966,478.0,426.0
3298,1685095415997,472.0,407.0
3299,1685095415997,517.0,471.0
3300,1685095415997,392.0,381.0
3301,1685095415997,472.0,422.0
3302,1685095416032,508.0,468.0
3303,1685095416032,373.0,400.0
3304,1685095416032,391.0,392.0
3305,1685095416065,407.0,431.0
3306,1685095416065,405.0,443.0
3307,1685095416065,364.0,452.0
3308,1685095416066,448.0,436.0
3309,1685095416093,389.0,473.0
3310,1685095416093,495.0,441.0
3311,1685095416093,417.0,462.0
3312,1685095416125,497.0,430.0
3313,1685095416125,480.0,447.0
3314,1685095416125,481.0,440.0
3315,1685095416125,413.0,374.0
3316,1685095416156,516.0,448.0
3317,1685095416156,414.0,416.0
3318,1685095416156,388.0,393.0
3319,1685095416156,465.0,427.0
3320,1685095416201,408.0,418.0
3321,1685095416201,362.0,400.0
3322,1685095416201,372.0,444.0
3323,1685095416232,434.0,443.0
3324,1685095416232,394.0,470.0
3325,1685095416232,480.0,444.0
3326,1685095416232,397.0,447.0
3327,1685095416266,492.0,428.0
3328,1685095416266,443.0,448.0
3329,1685095416266,473.0,427.0
3330,1685095416298,463.0,410.0
3331,1685095416298,507.0,467.0
3332,1685095416298,385.0,378.0
3333,1685095416298,479.0,428.0
3334,1685095416333,492.0,452.0
3335,1685095416333,385.0,402.0
3336,1685095416333,402.0,409.0
3337,1685095416366,416.0,441.0
3338,1685095416366,420.0,437.0
3339,1685095416366,375.0,442.0
3340,1685095416366,456.0,444.0
3341,1685095416392,389.0,466.0
3342,1685095416392,481.0,436.0
3343,1685095416392,408.0,469.0
3344,1685095416424,483.0,431.0
3345,1685095416424,459.0,438.0
3346,1685095416424,477.0,436.0
3347,1685095416424,418.0,388.0
3348,1685095416455,517.0,459.0
3349,1685095416455,418.0,427.0
3350,1685095416455,399.0,394.0
3351,1685095416455,474.0,443.0
3352,1685095416501,405.0,420.0
3353,1685095416501,369.0,412.0
3354,1685095416501,372.0,431.0
3355,1685095416532,434.0,444.0
3356,1685095416532,388.0,470.0
3357,1685095416532,474.0,448.0
3358,1685095416532,389.0,456.0
3359,1685095416568,489.0,438.0
3360,1685095416568,445.0,467.0
3361,1685095416568,482.0,439.0
3362,1685095416599,470.0,412.0
3363,1685095416599,509.0,461.0
3364,1685095416599,395.0,387.0
3365,1685095416599,502.0,426.0
3366,1685095416631,481.0,457.0
3367,1685095416631,370.0,395.0
3368,1685095416631,404.0,405.0
3369,1685095416662,417.0,430.0
3370,1685095416662,407.0,435.0
3371,1685095416662,356.0,454.0
3372,1685095416662,454.0,441.0
3373,1685095416693,391.0,466.0
3374,1685095416693,494.0,443.0
3375,1685095416693,417.0,471.0
3376,1685095416725,494.0,450.0
3377,1685095416725,472.0,440.0
3378,1685095416725,483.0,436.0
3379,1685095416725,428.0,387.0
3380,1685095416756,518.0,458.0
3381,1685095416756,410.0,415.0
3382,1685095416756,413.0,392.0
3383,1685095416756,479.0,440.0
3384,1685095416801,407.0,433.0
3385,1685095416801,373.0,404.0
3386,1685095416801,377.0,433.0
3387,1685095416833,445.0,454.0
3388,1685095416833,380.0,469.0
3389,1685095416833,476.0,453.0
3390,1685095416833,386.0,470.0
3391,1685095416868,494.0,429.0
3392,1685095416868,439.0,468.0
3393,1685095416868,474.0,422.0
3394,1685095416899,470.0,423.0
3395,1685095416899,505.0,458.0
3396,1685095416899,391.0,381.0
3397,1685095416899,496.0,431.0
3398,1685095416931,487.0,457.0
3399,1685095416931,378.0,401.0
3400,1685095416931,411.0,401.0
3401,1685095416962,409.0,437.0
3402,1685095416962,398.0,430.0
3403,1685095416962,364.0,437.0
3404,1685095416962,453.0,450.0
3405,1685095416993,388.0,472.0
3406,1685095416993,481.0,427.0
3407,1685095416993,409.0,459.0
3408,1685095417026,491.0,433.0
3409,1685095417026,454.0,440.0
3410,1685095417026,482.0,437.0
3411,1685095417026,432.0,391.0
3412,1685095417056,517.0,454.0
3413,1685095417056,404.0,413.0
3414,1685095417056,418.0,398.0
3415,1685095417056,485.0,440.0
3416,1685095417102,394.0,410.0
3417,1685095417102,377.0,408.0
3418,1685095417102,380.0,437.0
3419,1685095417133,436.0,454.0
3420,1685095417133,380.0,464.0
3421,1685095417133,472.0,451.0
3422,1685095417133,389.0,467.0
3423,1685095417169,496.0,439.0
3424,1685095417169,432.0,454.0
3425,1685095417169,478.0,433.0
3426,1685095417200,469.0,420.0
3427,1685095417200,502.0,460.0
3428,1685095417200,394.0,368.0
3429,1685095417200,502.0,441.0
3430,1685095417234,474.0,450.0
3431,1685095417234,374.0,394.0
3432,1685095417234,420.0,412.0
3433,1685095417268,414.0,436.0
3434,1685095417268,395.0,430.0
3435,1685095417268,370.0,439.0
3436,1685095417268,450.0,457.0
3437,1685095417301,383.0,456.0
3438,1685095417301,482.0,446.0
3439,1685095417301,407.0,470.0
3440,1685095417334,498.0,428.0
3441,1685095417334,470.0,458.0
3442,1685095417334,480.0,419.0
3443,1685095417334,450.0,395.0
3444,1685095417356,524.0,463.0
3445,1685095417356,403.0,402.0
3446,1685095417356,439.0,414.0
3447,1685095417356,489.0,433.0
3448,1685095417402,385.0,421.0
3449,1685095417402,377.0,395.0
3450,1685095417402,386.0,430.0
3451,1685095417434,434.0,437.0
3452,1685095417434,371.0,474.0
3453,1685095417434,470.0,441.0
3454,1685095417434,391.0,479.0
3455,1685095417469,499.0,436.0
3456,1685095417469,433.0,455.0
3457,1685095417469,486.0,434.0
3458,1685095417501,472.0,432.0
3459,1685095417501,497.0,437.0
3460,1685095417501,396.0,384.0
3461,1685095417501,494.0,428.0
3462,1685095417532,467.0,455.0
3463,1685095417532,368.0,383.0
3464,1685095417532,426.0,408.0
3465,1685095417563,411.0,430.0
3466,1685095417563,389.0,435.0
3467,1685095417563,370.0,443.0
3468,1685095417563,456.0,451.0
3469,1685095417595,394.0,469.0
3470,1685095417595,482.0,441.0
3471,1685095417595,401.0,458.0
3472,1685095417626,490.0,440.0
3473,1685095417626,457.0,451.0
3474,1685095417626,473.0,434.0
3475,1685095417626,448.0,393.0
3476,1685095417658,525.0,471.0
3477,1685095417658,398.0,409.0
3478,1685095417658,445.0,408.0
3479,1685095417658,499.0,454.0
3480,1685095417703,409.0,426.0
3481,1685095417703,375.0,399.0
3482,1685095417703,390.0,438.0
3483,1685095417734,425.0,441.0
3484,1685095417734,375.0,459.0
3485,1685095417734,472.0,448.0
3486,1685095417734,388.0,466.0
3487,1685095417770,488.0,439.0
3488,1685095417770,418.0,464.0
3489,1685095417770,482.0,431.0
3490,1685095417801,470.0,423.0
3491,1685095417801,493.0,455.0
3492,1685095417801,406.0,379.0
3493,1685095417801,510.0,429.0
3494,1685095417833,479.0,446.0
3495,1685095417833,374.0,383.0
3496,1685095417833,433.0,412.0
3497,1685095417864,408.0,429.0
3498,1685095417864,378.0,425.0
3499,1685095417864,361.0,436.0
3500,1685095417864,450.0,450.0
3501,1685095417895,379.0,475.0
3502,1685095417895,481.0,448.0
3503,1685095417895,401.0,450.0
3504,1685095417936,499.0,441.0
3505,1685095417936,464.0,464.0
3506,1685095417936,479.0,434.0
3507,1685095417936,457.0,404.0
3508,1685095417958,521.0,463.0
3509,1685095417958,393.0,390.0
3510,1685095417958,448.0,420.0
3511,1685095417958,499.0,442.0
3512,1685095418004,389.0,424.0
3513,1685095418004,376.0,402.0
3514,1685095418004,392.0,436.0
3515,1685095418035,423.0,443.0
3516,1685095418035,380.0,458.0
3517,1685095418035,475.0,453.0
3518,1685095418035,394.0,466.0
3519,1685095418071,497.0,439.0
3520,1685095418071,427.0,455.0
3521,1685095418071,485.0,426.0
3522,1685095418102,467.0,442.0
3523,1685095418102,480.0,451.0
3524,1685095418102,392.0,380.0
3525,1685095418102,510.0,442.0
3526,1685095418134,456.0,433.0
3527,1685095418134,388.0,394.0
3528,1685095418134,460.0,418.0
3529,1685095418165,416.0,439.0
3530,1685095418165,398.0,445.0
3531,1685095418165,370.0,441.0
3532,1685095418165,452.0,443.0
3533,1685095418200,388.0,481.0
3534,1685095418200,471.0,432.0
3535,1685095418200,385.0,464.0
3536,1685095418228,487.0,436.0
3537,1685095418228,445.0,444.0
3538,1685095418228,475.0,440.0
3539,1685095418228,455.0,399.0
3540,1685095418263,525.0,466.0
3541,1685095418263,392.0,401.0
3542,1685095418263,462.0,406.0
3543,1685095418263,506.0,458.0
3544,1685095418304,395.0,408.0
3545,1685095418304,377.0,390.0
3546,1685095418304,401.0,432.0
3547,1685095418335,416.0,435.0
3548,1685095418335,365.0,443.0
3549,1685095418335,470.0,446.0
3550,1685095418335,385.0,473.0
3551,1685095418371,486.0,435.0
3552,1685095418371,413.0,460.0
3553,1685095418371,487.0,437.0
3554,1685095418402,480.0,435.0
3555,1685095418402,490.0,450.0
3556,1685095418402,401.0,371.0
3557,1685095418402,520.0,448.0
3558,1685095418434,448.0,436.0
3559,1685095418434,366.0,378.0
3560,1685095418434,451.0,409.0
3561,1685095418465,406.0,436.0
3562,1685095418465,371.0,421.0
3563,1685095418465,364.0,427.0
3564,1685095418465,448.0,447.0
3565,1685095418497,381.0,475.0
3566,1685095418497,476.0,432.0
3567,1685095418497,395.0,461.0
3568,1685095418528,496.0,435.0
3569,1685095418528,455.0,457.0
3570,1685095418528,471.0,436.0
3571,1685095418528,455.0,392.0
3572,1685095418561,518.0,467.0
3573,1685095418561,382.0,382.0
3574,1685095418561,465.0,416.0
3575,1685095418561,511.0,464.0
3576,1685095418608,392.0,420.0
3577,1685095418608,391.0,405.0
3578,1685095418608,398.0,434.0
3579,1685095418624,419.0,446.0
3580,1685095418624,364.0,451.0
3581,1685095418624,465.0,448.0
3582,1685095418624,398.0,479.0
3583,1685095418672,492.0,431.0
3584,1685095418672,416.0,472.0
3585,1685095418672,493.0,444.0
3586,1685095418703,470.0,431.0
3587,1685095418703,479.0,441.0
3588,1685095418703,411.0,374.0
3589,1685095418703,524.0,452.0
3590,1685095418735,429.0,436.0
3591,1685095418735,380.0,389.0
3592,1685095418735,459.0,430.0
3593,1685095418766,404.0,425.0
3594,1685095418766,382.0,425.0
3595,1685095418766,361.0,446.0
3596,1685095418766,446.0,452.0
3597,1685095418798,381.0,472.0
3598,1685095418798,476.0,438.0
3599,1685095418798,393.0,460.0
3600,1685095418830,498.0,443.0
3601,1685095418830,441.0,448.0
3602,1685095418830,473.0,434.0
3603,1685095418830,470.0,407.0
3604,1685095418862,515.0,465.0
3605,1685095418862,384.0,371.0
3606,1685095418862,482.0,437.0
3607,1685095418862,504.0,457.0
3608,1685095418907,377.0,408.0
3609,1685095418907,393.0,404.0
3610,1685095418907,399.0,434.0
3611,1685095418938,410.0,450.0
3612,1685095418938,363.0,463.0
3613,1685095418938,468.0,442.0
3614,1685095418938,385.0,477.0
3615,1685095418974,490.0,429.0
3616,1685095418974,411.0,473.0
3617,1685095418974,494.0,431.0
3618,1685095419005,471.0,442.0
3619,1685095419005,484.0,451.0
3620,1685095419005,411.0,381.0
3621,1685095419005,533.0,451.0
3622,1685095419037,423.0,419.0
3623,1685095419037,387.0,382.0
3624,1685095419037,469.0,446.0
3625,1685095419072,395.0,413.0
3626,1685095419072,365.0,406.0
3627,1685095419072,364.0,435.0
3628,1685095419072,442.0,431.0
3629,1685095419101,384.0,479.0
3630,1685095419101,486.0,449.0
3631,1685095419101,388.0,463.0
3632,1685095419132,497.0,433.0
3633,1685095419132,438.0,456.0
3634,1685095419132,474.0,433.0
3635,1685095419132,462.0,403.0
3636,1685095419167,514.0,461.0
3637,1685095419167,377.0,377.0
3638,1685095419167,481.0,436.0
3639,1685095419167,497.0,463.0
3640,1685095419207,374.0,391.0
3641,1685095419207,400.0,403.0
3642,1685095419207,409.0,440.0
3643,1685095419239,410.0,441.0
3644,1685095419239,361.0,454.0
3645,1685095419239,453.0,437.0
3646,1685095419239,382.0,483.0
3647,1685095419273,485.0,434.0
3648,1685095419273,408.0,451.0
3649,1685095419273,494.0,434.0
3650,1685095419304,469.0,441.0
3651,1685095419304,482.0,445.0
3652,1685095419304,426.0,388.0
3653,1685095419304,527.0,455.0
3654,1685095419337,413.0,407.0
3655,1685095419337,397.0,394.0
3656,1685095419337,487.0,434.0
3657,1685095419368,400.0,435.0
3658,1685095419368,357.0,391.0
3659,1685095419368,368.0,434.0
3660,1685095419368,436.0,440.0
3661,1685095419399,381.0,467.0
3662,1685095419399,480.0,444.0
3663,1685095419399,391.0,461.0
3664,1685095419431,498.0,436.0
3665,1685095419431,443.0,460.0
3666,1685095419431,485.0,440.0
3667,1685095419431,470.0,418.0
3668,1685095419463,509.0,451.0
3669,1685095419463,386.0,374.0
3670,1685095419463,489.0,418.0
3671,1685095419463,495.0,472.0
3672,1685095419508,367.0,394.0
3673,1685095419508,413.0,414.0
3674,1685095419508,410.0,444.0
3675,1685095419539,400.0,424.0
3676,1685095419539,361.0,454.0
3677,1685095419539,454.0,447.0
3678,1685095419539,385.0,473.0
3679,1685095419574,489.0,433.0
3680,1685095419574,405.0,472.0
3681,1685095419574,517.0,430.0
3682,1685095419605,472.0,433.0
3683,1685095419605,482.0,443.0
3684,1685095419605,430.0,382.0
3685,1685095419605,519.0,470.0
3686,1685095419637,408.0,403.0
3687,1685095419637,409.0,392.0
3688,1685095419637,489.0,435.0
3689,1685095419669,405.0,439.0
3690,1685095419669,369.0,400.0
3691,1685095419669,378.0,436.0
3692,1685095419669,439.0,451.0
3693,1685095419700,382.0,467.0
3694,1685095419700,478.0,452.0
3695,1685095419700,391.0,463.0
3696,1685095419731,489.0,430.0
3697,1685095419731,428.0,456.0
3698,1685095419731,481.0,423.0
3699,1685095419731,466.0,419.0
3700,1685095419764,502.0,444.0
3701,1685095419764,387.0,385.0
3702,1685095419764,503.0,435.0
3703,1685095419764,484.0,459.0
3704,1685095419808,367.0,394.0
3705,1685095419808,428.0,418.0
3706,1685095419808,405.0,431.0
3707,1685095419839,398.0,429.0
3708,1685095419839,364.0,447.0
3709,1685095419839,452.0,444.0
3710,1685095419839,378.0,471.0
3711,1685095419875,482.0,440.0
3712,1685095419875,400.0,461.0
3713,1685095419875,490.0,429.0
3714,1685095419906,464.0,445.0
3715,1685095419906,479.0,455.0
3716,1685095419906,438.0,386.0
3717,1685095419906,526.0,466.0
3718,1685095419938,412.0,415.0
3719,1685095419938,427.0,390.0
3720,1685095419938,499.0,460.0
3721,1685095419974,391.0,439.0
3722,1685095419974,364.0,396.0
3723,1685095419974,376.0,434.0
3724,1685095419974,421.0,437.0
3725,1685095420006,380.0,468.0
3726,1685095420006,480.0,452.0
3727,1685095420006,394.0,468.0
3728,1685095420039,499.0,440.0
3729,1685095420039,424.0,462.0
3730,1685095420039,488.0,433.0
3731,1685095420039,475.0,415.0
3732,1685095420064,495.0,452.0
3733,1685095420064,392.0,364.0
3734,1685095420064,498.0,438.0
3735,1685095420064,476.0,455.0
3736,1685095420108,363.0,387.0
3737,1685095420108,424.0,403.0
3738,1685095420108,407.0,444.0
3739,1685095420139,394.0,431.0
3740,1685095420139,354.0,445.0
3741,1685095420139,460.0,445.0
3742,1685095420139,388.0,475.0
3743,1685095420175,498.0,442.0
3744,1685095420175,408.0,463.0
3745,1685095420175,493.0,435.0
3746,1685095420206,463.0,444.0
3747,1685095420206,470.0,428.0
3748,1685095420206,438.0,396.0
3749,1685095420206,518.0,453.0
3750,1685095420238,399.0,412.0
3751,1685095420238,445.0,414.0
3752,1685095420238,498.0,435.0
3753,1685095420269,393.0,434.0
3754,1685095420269,373.0,388.0
3755,1685095420269,386.0,446.0
3756,1685095420269,440.0,448.0
3757,1685095420301,374.0,468.0
3758,1685095420301,481.0,447.0
3759,1685095420301,387.0,471.0
3760,1685095420333,486.0,421.0
3761,1685095420333,417.0,471.0
3762,1685095420333,482.0,426.0
3763,1685095420333,473.0,444.0
3764,1685095420364,493.0,456.0
3765,1685095420364,393.0,378.0
3766,1685095420364,508.0,435.0
3767,1685095420364,468.0,428.0
3768,1685095420408,369.0,392.0
3769,1685095420408,444.0,408.0
3770,1685095420408,401.0,443.0
3771,1685095420441,384.0,429.0
3772,1685095420441,353.0,433.0
3773,1685095420441,446.0,439.0
3774,1685095420441,384.0,477.0
3775,1685095420476,482.0,432.0
3776,1685095420476,399.0,455.0
3777,1685095420476,501.0,442.0
3778,1685095420507,463.0,446.0
3779,1685095420507,469.0,432.0
3780,1685095420507,466.0,405.0
