Sample Number (10000 samples per second),UNIX Timestamp (Milliseconds since 1970-01-01),C1 (),C2 ()
0,1685094694673,398.0,409.0
1,1685094694673,411.0,412.0
2,1685094694673,421.0,421.0
3,1685094694673,416.0,420.0
4,1685094694673,397.0,413.0
5,1685094694673,383.0,386.0
6,1685094694673,407.0,401.0
7,1685094694673,466.0,427.0
8,1685094694673,437.0,492.0
9,1685094694678,452.0,404.0
10,1685094694678,458.0,441.0
11,1685094694678,453.0,458.0
12,1685094694678,406.0,351.0
13,1685094694678,485.0,485.0
14,1685094694678,433.0,402.0
15,1685094694678,378.0,380.0
16,1685094694678,466.0,423.0
17,1685094694678,412.0,415.0
18,1685094694678,420.0,406.0
19,1685094694678,396.0,418.0
20,1685094694678,456.0,455.0
21,1685094694678,428.0,490.0
22,1685094694678,466.0,436.0
23,1685094694678,425.0,494.0
24,1685094694678,461.0,410.0
25,1685094694678,437.0,484.0
26,1685094694678,441.0,417.0
27,1685094694678,440.0,408.0
28,1685094694678,466.0,485.0
29,1685094694678,394.0,347.0
30,1685094694678,456.0,452.0
31,1685094694678,469.0,434.0
32,1685094694678,379.0,381.0
33,1685094694678,437.0,404.0
34,1685094694678,426.0,434.0
35,1685094694678,435.0,441.0
36,1685094694678,399.0,439.0
37,1685094694678,459.0,450.0
38,1685094694678,428.0,489.0
39,1685094694678,457.0,421.0
40,1685094694678,421.0,487.0
41,1685094694678,452.0,402.0
42,1685094694678,443.0,468.0
43,1685094694678,429.0,430.0
44,1685094694678,424.0,386.0
45,1685094694678,473.0,484.0
46,1685094694678,406.0,373.0
47,1685094694678,440.0,430.0
48,1685094694678,502.0,465.0
49,1685094694678,406.0,404.0
50,1685094694678,425.0,404.0
51,1685094694678,409.0,424.0
52,1685094694679,445.0,451.0
53,1685094694679,406.0,457.0
54,1685094694679,457.0,443.0
55,1685094694679,421.0,488.0
56,1685094694679,452.0,417.0
57,1685094694679,431.0,500.0
58,1685094694679,461.0,415.0
59,1685094694679,455.0,445.0
60,1685094694679,447.0,453.0
61,1685094694679,416.0,359.0
62,1685094694679,483.0,489.0
63,1685094694679,425.0,397.0
64,1685094694679,395.0,388.0
65,1685094694679,477.0,434.0
66,1685094694679,409.0,418.0
67,1685094694679,417.0,407.0
68,1685094694679,382.0,409.0
69,1685094694679,447.0,461.0
70,1685094694679,422.0,478.0
71,1685094694679,467.0,445.0
72,1685094694679,424.0,499.0
73,1685094694679,460.0,423.0
74,1685094694679,439.0,475.0
75,1685094694679,441.0,421.0
76,1685094694679,458.0,426.0
77,1685094694679,461.0,469.0
78,1685094694679,401.0,352.0
79,1685094694679,469.0,458.0
80,1685094694679,453.0,419.0
81,1685094694679,375.0,379.0
82,1685094694680,447.0,403.0
83,1685094694680,423.0,424.0
84,1685094694680,434.0,428.0
85,1685094694680,401.0,434.0
86,1685094694680,461.0,464.0
87,1685094694680,424.0,490.0
88,1685094694680,463.0,430.0
89,1685094694680,423.0,496.0
90,1685094694680,459.0,410.0
91,1685094694680,442.0,483.0
92,1685094694680,432.0,416.0
93,1685094694680,441.0,389.0
94,1685094694680,465.0,488.0
95,1685094694680,395.0,351.0
96,1685094694680,446.0,435.0
97,1685094694680,492.0,457.0
98,1685094694680,393.0,401.0
99,1685094694680,436.0,405.0
100,1685094694680,422.0,430.0
101,1685094694680,454.0,456.0
102,1685094694680,410.0,451.0
103,1685094694680,459.0,450.0
104,1685094694680,425.0,494.0
105,1685094694680,449.0,412.0
106,1685094694680,414.0,479.0
107,1685094694680,442.0,409.0
108,1685094694680,445.0,453.0
109,1685094694680,443.0,443.0
110,1685094694680,419.0,371.0
111,1685094694680,488.0,496.0
112,1685094694680,423.0,384.0
113,1685094694680,420.0,409.0
114,1685094694680,493.0,451.0
115,1685094694680,413.0,410.0
116,1685094694680,410.0,402.0
117,1685094694680,397.0,412.0
118,1685094694680,448.0,459.0
119,1685094694680,396.0,466.0
120,1685094694680,466.0,447.0
121,1685094694680,418.0,501.0
122,1685094694680,457.0,415.0
123,1685094694680,439.0,486.0
124,1685094694680,442.0,402.0
125,1685094694680,456.0,438.0
126,1685094694680,456.0,474.0
127,1685094694680,410.0,344.0
128,1685094694680,480.0,478.0
129,1685094694680,445.0,406.0
130,1685094694680,367.0,369.0
131,1685094694680,450.0,416.0
132,1685094694680,412.0,415.0
133,1685094694680,421.0,418.0
134,1685094694680,389.0,436.0
135,1685094694680,454.0,455.0
136,1685094694680,414.0,488.0
137,1685094694680,457.0,436.0
138,1685094694680,425.0,506.0
139,1685094694680,458.0,418.0
140,1685094694680,450.0,487.0
141,1685094694680,438.0,419.0
142,1685094694680,443.0,394.0
143,1685094694680,474.0,481.0
144,1685094694680,393.0,342.0
145,1685094694680,455.0,438.0
146,1685094694680,473.0,447.0
147,1685094694680,384.0,383.0
148,1685094694680,434.0,408.0
149,1685094694680,417.0,424.0
150,1685094694680,450.0,448.0
151,1685094694680,404.0,457.0
152,1685094694680,466.0,446.0
153,1685094694680,425.0,496.0
154,1685094694680,448.0,421.0
155,1685094694680,420.0,487.0
156,1685094694680,449.0,398.0
157,1685094694680,448.0,461.0
158,1685094694680,427.0,430.0
159,1685094694680,422.0,356.0
160,1685094694680,489.0,496.0
161,1685094694680,407.0,371.0
162,1685094694680,434.0,416.0
163,1685094694680,498.0,464.0
164,1685094694680,407.0,415.0
165,1685094694680,427.0,415.0
166,1685094694680,411.0,415.0
167,1685094694680,458.0,455.0
168,1685094694680,399.0,462.0
169,1685094694680,460.0,444.0
170,1685094694680,422.0,499.0
171,1685094694680,451.0,408.0
172,1685094694680,423.0,485.0
173,1685094694680,439.0,406.0
174,1685094694680,453.0,445.0
175,1685094694680,446.0,471.0
176,1685094694680,413.0,345.0
177,1685094694680,485.0,491.0
178,1685094694680,439.0,407.0
179,1685094694680,393.0,378.0
180,1685094694680,477.0,433.0
181,1685094694680,413.0,409.0
182,1685094694680,416.0,414.0
183,1685094694680,391.0,413.0
184,1685094694680,450.0,451.0
185,1685094694680,407.0,480.0
186,1685094694680,455.0,436.0
187,1685094694680,419.0,502.0
188,1685094694680,463.0,418.0
189,1685094694680,442.0,478.0
190,1685094694680,441.0,416.0
191,1685094694680,449.0,410.0
192,1685094694680,463.0,479.0
193,1685094694680,409.0,353.0
194,1685094694680,472.0,457.0
195,1685094694680,461.0,429.0
196,1685094694680,379.0,379.0
197,1685094694680,438.0,402.0
198,1685094694680,420.0,418.0
199,1685094694680,431.0,440.0
200,1685094694680,391.0,437.0
201,1685094694680,459.0,461.0
202,1685094694680,428.0,501.0
203,1685094694680,456.0,423.0
204,1685094694680,424.0,511.0
205,1685094694680,462.0,404.0
206,1685094694680,451.0,480.0
207,1685094694680,440.0,421.0
208,1685094694680,431.0,380.0
209,1685094694680,478.0,486.0
210,1685094694680,407.0,365.0
211,1685094694680,445.0,432.0
212,1685094694680,496.0,456.0
213,1685094694680,397.0,401.0
214,1685094694680,424.0,411.0
215,1685094694680,417.0,419.0
216,1685094694680,456.0,465.0
217,1685094694680,407.0,456.0
218,1685094694680,452.0,436.0
219,1685094694680,421.0,507.0
220,1685094694680,448.0,410.0
221,1685094694680,427.0,489.0
222,1685094694680,446.0,401.0
223,1685094694680,451.0,447.0
224,1685094694680,442.0,448.0
225,1685094694680,414.0,358.0
226,1685094694680,491.0,483.0
227,1685094694680,431.0,387.0
228,1685094694680,420.0,402.0
229,1685094694680,484.0,435.0
230,1685094694680,417.0,421.0
231,1685094694680,420.0,406.0
232,1685094694680,397.0,418.0
233,1685094694680,454.0,467.0
234,1685094694680,410.0,465.0
235,1685094694680,449.0,440.0
236,1685094694680,414.0,493.0
237,1685094694680,449.0,404.0
238,1685094694680,430.0,488.0
239,1685094694680,444.0,417.0
240,1685094694680,457.0,415.0
241,1685094694680,463.0,479.0
242,1685094694680,406.0,337.0
243,1685094694680,485.0,483.0
244,1685094694680,459.0,418.0
245,1685094694680,384.0,382.0
246,1685094694680,453.0,416.0
247,1685094694680,419.0,424.0
248,1685094694680,420.0,420.0
249,1685094694680,388.0,426.0
250,1685094694680,444.0,453.0
251,1685094694680,421.0,497.0
252,1685094694680,454.0,429.0
253,1685094694680,418.0,498.0
254,1685094694680,463.0,425.0
255,1685094694680,449.0,473.0
256,1685094694680,444.0,430.0
257,1685094694680,444.0,389.0
258,1685094694680,481.0,492.0
259,1685094694680,394.0,354.0
260,1685094694680,456.0,445.0
261,1685094694680,484.0,443.0
262,1685094694680,390.0,391.0
263,1685094694680,423.0,398.0
264,1685094694680,415.0,416.0
265,1685094694680,445.0,449.0
266,1685094694680,394.0,449.0
267,1685094694680,456.0,450.0
268,1685094694680,423.0,507.0
269,1685094694680,460.0,429.0
270,1685094694680,422.0,495.0
271,1685094694680,453.0,414.0
272,1685094694680,455.0,455.0
273,1685094694680,442.0,441.0
274,1685094694680,428.0,362.0
275,1685094694680,490.0,491.0
276,1685094694680,410.0,378.0
277,1685094694680,425.0,409.0
278,1685094694680,497.0,449.0
279,1685094694680,413.0,418.0
280,1685094694680,420.0,412.0
281,1685094694680,403.0,425.0
282,1685094694680,453.0,450.0
283,1685094694680,407.0,477.0
284,1685094694680,464.0,442.0
285,1685094694680,416.0,499.0
286,1685094694680,454.0,408.0
287,1685094694680,422.0,484.0
288,1685094694680,450.0,415.0
289,1685094694680,453.0,430.0
290,1685094694680,446.0,460.0
291,1685094694680,403.0,346.0
292,1685094694680,482.0,482.0
293,1685094694680,440.0,414.0
294,1685094694680,388.0,385.0
295,1685094694680,464.0,424.0
296,1685094694680,424.0,424.0
297,1685094694680,424.0,419.0
298,1685094694680,396.0,422.0
299,1685094694680,445.0,453.0
300,1685094694680,420.0,487.0
301,1685094694680,454.0,430.0
302,1685094694680,418.0,486.0
303,1685094694680,461.0,417.0
304,1685094694680,438.0,475.0
305,1685094694680,447.0,422.0
306,1685094694680,443.0,410.0
307,1685094694680,476.0,481.0
308,1685094694680,409.0,365.0
309,1685094694680,467.0,453.0
310,1685094694680,474.0,440.0
311,1685094694680,387.0,382.0
312,1685094694680,436.0,395.0
313,1685094694680,424.0,425.0
314,1685094694680,434.0,436.0
315,1685094694680,385.0,430.0
316,1685094694680,450.0,442.0
317,1685094694680,425.0,497.0
318,1685094694680,463.0,428.0
319,1685094694680,415.0,490.0
320,1685094694680,463.0,423.0
321,1685094694680,453.0,463.0
322,1685094694680,450.0,436.0
323,1685094694680,436.0,378.0
324,1685094694680,481.0,487.0
325,1685094694680,407.0,367.0
326,1685094694680,436.0,420.0
327,1685094694680,491.0,454.0
328,1685094694680,406.0,408.0
329,1685094694680,416.0,394.0
330,1685094694680,411.0,425.0
331,1685094694680,445.0,454.0
332,1685094694680,404.0,456.0
333,1685094694680,466.0,454.0
334,1685094694680,422.0,487.0
335,1685094694680,461.0,434.0
336,1685094694680,422.0,481.0
337,1685094694680,453.0,420.0
338,1685094694680,459.0,445.0
339,1685094694680,450.0,452.0
340,1685094694680,405.0,355.0
341,1685094694680,484.0,479.0
342,1685094694689,431.0,404.0
343,1685094694689,400.0,389.0
344,1685094694689,478.0,431.0
345,1685094694689,421.0,421.0
346,1685094694689,416.0,420.0
347,1685094694689,401.0,409.0
348,1685094694689,456.0,464.0
349,1685094694689,421.0,480.0
350,1685094694689,460.0,432.0
351,1685094694689,418.0,495.0
352,1685094694689,453.0,409.0
353,1685094694689,430.0,480.0
354,1685094694689,441.0,422.0
355,1685094694689,450.0,424.0
356,1685094694689,469.0,475.0
357,1685094694689,407.0,358.0
358,1685094694689,482.0,458.0
359,1685094694689,457.0,429.0
360,1685094694689,377.0,377.0
361,1685094694689,444.0,410.0
362,1685094694689,421.0,425.0
363,1685094694689,425.0,428.0
364,1685094694689,391.0,430.0
365,1685094694689,451.0,450.0
366,1685094694689,418.0,487.0
367,1685094694689,449.0,436.0
368,1685094694689,411.0,488.0
369,1685094694689,465.0,421.0
370,1685094694689,450.0,468.0
371,1685094694689,441.0,431.0
372,1685094694689,443.0,403.0
373,1685094694689,479.0,481.0
374,1685094694689,401.0,370.0
375,1685094694689,452.0,432.0
376,1685094694689,496.0,448.0
377,1685094694689,394.0,400.0
378,1685094694689,424.0,398.0
379,1685094694689,412.0,413.0
380,1685094694689,437.0,434.0
381,1685094694689,394.0,445.0
382,1685094694689,459.0,446.0
383,1685094694689,427.0,493.0
384,1685094694689,467.0,434.0
385,1685094694689,425.0,483.0
386,1685094694689,460.0,412.0
387,1685094694689,454.0,463.0
388,1685094694689,443.0,449.0
389,1685094694689,411.0,361.0
390,1685094694689,484.0,483.0
391,1685094694689,420.0,395.0
392,1685094694689,418.0,402.0
393,1685094694689,490.0,442.0
394,1685094694689,411.0,418.0
395,1685094694689,407.0,399.0
396,1685094694689,402.0,421.0
397,1685094694689,451.0,452.0
398,1685094694689,413.0,470.0
399,1685094694689,455.0,448.0
400,1685094694689,419.0,495.0
401,1685094694689,473.0,431.0
402,1685094694689,430.0,486.0
403,1685094694689,444.0,408.0
404,1685094694689,454.0,438.0
405,1685094694689,457.0,461.0
406,1685094694689,401.0,355.0
407,1685094694689,480.0,473.0
408,1685094694689,451.0,410.0
409,1685094694689,381.0,379.0
410,1685094694689,456.0,411.0
411,1685094694689,419.0,415.0
412,1685094694689,421.0,428.0
413,1685094694689,399.0,419.0
414,1685094694689,461.0,470.0
415,1685094694689,427.0,486.0
416,1685094694689,453.0,424.0
417,1685094694689,415.0,495.0
418,1685094694689,459.0,415.0
419,1685094694689,435.0,473.0
420,1685094694689,440.0,423.0
421,1685094694689,437.0,401.0
422,1685094694689,479.0,490.0
423,1685094694689,396.0,355.0
424,1685094694689,468.0,451.0
425,1685094694689,483.0,450.0
426,1685094694689,390.0,389.0
427,1685094694689,437.0,408.0
428,1685094694689,418.0,415.0
429,1685094694689,439.0,453.0
430,1685094694689,398.0,437.0
431,1685094694689,450.0,437.0
432,1685094694689,426.0,495.0
433,1685094694689,454.0,427.0
434,1685094694689,411.0,481.0
435,1685094694689,458.0,414.0
436,1685094694689,453.0,470.0
437,1685094694689,448.0,431.0
438,1685094694689,431.0,380.0
439,1685094694689,490.0,490.0
440,1685094694689,422.0,385.0
441,1685094694689,435.0,419.0
442,1685094694689,498.0,453.0
443,1685094694689,401.0,406.0
444,1685094694689,407.0,394.0
445,1685094694689,394.0,409.0
446,1685094694689,440.0,454.0
447,1685094694689,390.0,447.0
448,1685094694689,448.0,447.0
449,1685094694689,414.0,496.0
450,1685094694689,462.0,415.0
451,1685094694689,435.0,500.0
452,1685094694689,459.0,421.0
453,1685094694689,469.0,442.0
454,1685094694689,460.0,466.0
455,1685094694689,410.0,344.0
456,1685094694689,480.0,482.0
457,1685094694689,422.0,391.0
458,1685094694689,390.0,395.0
459,1685094694689,463.0,418.0
460,1685094694689,417.0,414.0
461,1685094694689,416.0,404.0
462,1685094694689,388.0,416.0
463,1685094694689,464.0,472.0
464,1685094694689,421.0,490.0
465,1685094694689,459.0,438.0
466,1685094694689,418.0,500.0
467,1685094694689,467.0,415.0
468,1685094694689,431.0,484.0
469,1685094694689,447.0,414.0
470,1685094694689,450.0,411.0
471,1685094694689,468.0,473.0
472,1685094694689,400.0,356.0
473,1685094694689,470.0,456.0
474,1685094694689,472.0,434.0
475,1685094694689,383.0,383.0
476,1685094694689,450.0,404.0
477,1685094694689,431.0,437.0
478,1685094694689,432.0,436.0
479,1685094694689,391.0,437.0
480,1685094694689,452.0,448.0
481,1685094694689,421.0,492.0
482,1685094694689,455.0,422.0
483,1685094694689,407.0,487.0
484,1685094694689,450.0,403.0
485,1685094694689,445.0,467.0
486,1685094694689,435.0,427.0
487,1685094694689,438.0,384.0
488,1685094694689,492.0,502.0
489,1685094694689,412.0,364.0
490,1685094694689,457.0,433.0
491,1685094694689,510.0,453.0
492,1685094694689,400.0,409.0
493,1685094694689,418.0,401.0
494,1685094694689,407.0,416.0
495,1685094694689,445.0,447.0
496,1685094694689,393.0,453.0
497,1685094694689,446.0,441.0
498,1685094694689,413.0,495.0
499,1685094694689,459.0,426.0
500,1685094694689,424.0,495.0
501,1685094694689,460.0,414.0
502,1685094694689,460.0,453.0
503,1685094694689,456.0,455.0
504,1685094694689,419.0,361.0
505,1685094694689,494.0,486.0
506,1685094694689,425.0,395.0
507,1685094694689,405.0,388.0
508,1685094694689,488.0,441.0
509,1685094694689,414.0,412.0
510,1685094694689,403.0,393.0
511,1685094694689,391.0,421.0
512,1685094694689,450.0,448.0
513,1685094694689,411.0,475.0
514,1685094694689,455.0,442.0
515,1685094694689,415.0,499.0
516,1685094694689,468.0,420.0
517,1685094694689,439.0,488.0
518,1685094694689,455.0,412.0
519,1685094694689,456.0,410.0
520,1685094694689,464.0,472.0
521,1685094694689,400.0,345.0
522,1685094694689,485.0,467.0
523,1685094694689,456.0,429.0
524,1685094694689,373.0,366.0
525,1685094694689,444.0,413.0
526,1685094694689,423.0,421.0
527,1685094694689,417.0,421.0
528,1685094694689,391.0,438.0
529,1685094694689,447.0,454.0
530,1685094694689,410.0,487.0
531,1685094694689,461.0,433.0
532,1685094694689,421.0,496.0
533,1685094694689,459.0,413.0
534,1685094694689,449.0,478.0
535,1685094694689,435.0,415.0
536,1685094694689,442.0,392.0
537,1685094694689,485.0,492.0
538,1685094694689,402.0,355.0
539,1685094694689,465.0,444.0
540,1685094694689,502.0,455.0
541,1685094694689,396.0,393.0
542,1685094694689,430.0,397.0
543,1685094694689,422.0,423.0
544,1685094694689,447.0,463.0
545,1685094694689,397.0,442.0
546,1685094694689,454.0,440.0
547,1685094694689,414.0,505.0
548,1685094694689,454.0,418.0
549,1685094694689,410.0,475.0
550,1685094694689,453.0,406.0
551,1685094694689,451.0,458.0
552,1685094694689,448.0,442.0
553,1685094694689,432.0,371.0
554,1685094694689,495.0,493.0
555,1685094694689,426.0,393.0
556,1685094694689,444.0,430.0
557,1685094694689,500.0,430.0
558,1685094694689,411.0,438.0
559,1685094694689,411.0,388.0
560,1685094694689,397.0,417.0
561,1685094694689,448.0,453.0
562,1685094694689,405.0,483.0
563,1685094694689,458.0,437.0
564,1685094694689,410.0,483.0
565,1685094694689,459.0,424.0
566,1685094694689,431.0,493.0
567,1685094694689,461.0,417.0
568,1685094694689,457.0,447.0
569,1685094694689,472.0,461.0
570,1685094694689,398.0,341.0
571,1685094694689,502.0,498.0
572,1685094694689,441.0,404.0
573,1685094694689,376.0,394.0
574,1685094694689,467.0,419.0
575,1685094694689,422.0,417.0
576,1685094694689,415.0,423.0
577,1685094694689,380.0,420.0
578,1685094694689,451.0,462.0
579,1685094694689,404.0,485.0
580,1685094694689,460.0,440.0
581,1685094694689,414.0,487.0
582,1685094694689,463.0,410.0
583,1685094694689,449.0,492.0
584,1685094694689,440.0,399.0
585,1685094694689,438.0,416.0
586,1685094694689,468.0,483.0
587,1685094694689,399.0,342.0
588,1685094694689,460.0,457.0
589,1685094694689,471.0,444.0
590,1685094694689,383.0,394.0
591,1685094694689,436.0,396.0
592,1685094694689,412.0,409.0
593,1685094694689,440.0,475.0
594,1685094694689,399.0,434.0
595,1685094694689,464.0,458.0
596,1685094694689,421.0,493.0
597,1685094694689,452.0,420.0
598,1685094694689,407.0,485.0
599,1685094694689,448.0,409.0
600,1685094694689,455.0,481.0
601,1685094694689,444.0,419.0
602,1685094694689,433.0,384.0
603,1685094694689,482.0,475.0
604,1685094694689,412.0,370.0
605,1685094694689,440.0,411.0
606,1685094694689,506.0,486.0
607,1685094694689,403.0,408.0
608,1685094694689,431.0,410.0
609,1685094694689,415.0,424.0
610,1685094694689,444.0,450.0
611,1685094694689,396.0,483.0
612,1685094694689,464.0,444.0
613,1685094694689,408.0,482.0
614,1685094694689,454.0,421.0
615,1685094694689,412.0,448.0
616,1685094694689,450.0,426.0
617,1685094694689,457.0,438.0
618,1685094694689,455.0,458.0
619,1685094694689,415.0,355.0
620,1685094694689,498.0,495.0
621,1685094694689,443.0,416.0
622,1685094694689,405.0,390.0
623,1685094694689,476.0,432.0
624,1685094694689,411.0,378.0
625,1685094694689,403.0,413.0
626,1685094694689,382.0,404.0
627,1685094694689,444.0,455.0
628,1685094694689,406.0,466.0
629,1685094694689,455.0,440.0
630,1685094694689,415.0,495.0
631,1685094694689,476.0,424.0
632,1685094694689,449.0,484.0
633,1685094694689,453.0,416.0
634,1685094694689,457.0,424.0
635,1685094694689,476.0,479.0
636,1685094694689,401.0,364.0
637,1685094694689,483.0,478.0
638,1685094694689,453.0,423.0
639,1685094694689,376.0,380.0
640,1685094694689,436.0,399.0
641,1685094694689,415.0,412.0
642,1685094694689,422.0,428.0
643,1685094694689,388.0,427.0
644,1685094694689,457.0,454.0
645,1685094694689,430.0,499.0
646,1685094694689,463.0,437.0
647,1685094694689,422.0,493.0
648,1685094694689,458.0,418.0
649,1685094694689,444.0,463.0
650,1685094694689,435.0,428.0
651,1685094694689,427.0,384.0
652,1685094694689,474.0,480.0
653,1685094694689,391.0,367.0
654,1685094694689,445.0,426.0
655,1685094694689,494.0,450.0
656,1685094694689,397.0,410.0
657,1685094694689,430.0,415.0
658,1685094694689,417.0,425.0
659,1685094694689,447.0,456.0
660,1685094694689,397.0,448.0
661,1685094694689,458.0,444.0
662,1685094694689,422.0,497.0
663,1685094694689,451.0,403.0
664,1685094694689,416.0,489.0
665,1685094694689,452.0,399.0
666,1685094694689,448.0,452.0
667,1685094694689,451.0,456.0
668,1685094694689,418.0,353.0
669,1685094694689,492.0,485.0
670,1685094694689,426.0,401.0
671,1685094694689,418.0,407.0
672,1685094694689,496.0,441.0
673,1685094694689,412.0,422.0
674,1685094694689,422.0,403.0
675,1685094694689,389.0,408.0
676,1685094694689,446.0,461.0
677,1685094694689,402.0,467.0
678,1685094694689,452.0,446.0
679,1685094694689,404.0,477.0
680,1685094694689,470.0,431.0
681,1685094694689,433.0,482.0
682,1685094694689,451.0,424.0
683,1685094694689,462.0,427.0
684,1685094694689,468.0,471.0
685,1685094694689,405.0,359.0
686,1685094694689,489.0,471.0
687,1685094694689,444.0,412.0
688,1685094694689,382.0,377.0
689,1685094694689,451.0,401.0
690,1685094694689,414.0,427.0
691,1685094694689,417.0,409.0
692,1685094694689,383.0,418.0
693,1685094694689,452.0,459.0
694,1685094694689,414.0,496.0
695,1685094694689,462.0,438.0
696,1685094694689,417.0,504.0
697,1685094694689,465.0,414.0
698,1685094694689,446.0,478.0
699,1685094694689,440.0,418.0
700,1685094694689,442.0,393.0
701,1685094694689,484.0,488.0
702,1685094694689,402.0,348.0
703,1685094694689,467.0,444.0
704,1685094694689,484.0,442.0
705,1685094694689,389.0,395.0
706,1685094694689,429.0,404.0
707,1685094694689,420.0,425.0
708,1685094694689,437.0,449.0
709,1685094694689,389.0,442.0
710,1685094694689,456.0,449.0
711,1685094694689,422.0,500.0
712,1685094694689,459.0,422.0
713,1685094694689,416.0,495.0
714,1685094694689,457.0,411.0
715,1685094694689,453.0,460.0
716,1685094694689,446.0,442.0
717,1685094694689,423.0,381.0
718,1685094694689,491.0,472.0
719,1685094694689,415.0,394.0
720,1685094694689,424.0,406.0
721,1685094694689,500.0,452.0
722,1685094694689,407.0,415.0
723,1685094694689,411.0,399.0
724,1685094694689,404.0,423.0
725,1685094694689,455.0,459.0
726,1685094694689,404.0,470.0
727,1685094694689,454.0,434.0
728,1685094694689,411.0,493.0
729,1685094694689,463.0,415.0
730,1685094694689,413.0,471.0
731,1685094694689,454.0,416.0
732,1685094694689,455.0,427.0
733,1685094694689,458.0,469.0
734,1685094694689,405.0,350.0
735,1685094694689,499.0,486.0
736,1685094694689,443.0,412.0
737,1685094694689,388.0,380.0
738,1685094694689,471.0,424.0
739,1685094694689,420.0,424.0
740,1685094694689,410.0,408.0
741,1685094694689,393.0,438.0
742,1685094694689,450.0,434.0
743,1685094694689,415.0,494.0
744,1685094694689,450.0,419.0
745,1685094694689,412.0,501.0
746,1685094694689,457.0,408.0
747,1685094694689,437.0,476.0
748,1685094694689,443.0,419.0
749,1685094694689,449.0,405.0
750,1685094694689,480.0,482.0
751,1685094694689,398.0,359.0
752,1685094694689,476.0,457.0
753,1685094694689,480.0,442.0
754,1685094694689,376.0,380.0
755,1685094694689,433.0,404.0
756,1685094694689,417.0,420.0
757,1685094694689,428.0,452.0
758,1685094694689,379.0,435.0
759,1685094694689,451.0,446.0
760,1685094694689,417.0,508.0
761,1685094694689,454.0,424.0
762,1685094694689,418.0,496.0
763,1685094694689,467.0,418.0
764,1685094694689,449.0,454.0
765,1685094694689,447.0,438.0
766,1685094694689,429.0,368.0
767,1685094694689,492.0,508.0
768,1685094694689,407.0,361.0
769,1685094694689,439.0,430.0
770,1685094694689,502.0,453.0
771,1685094694689,399.0,408.0
772,1685094694689,413.0,398.0
773,1685094694689,400.0,414.0
774,1685094694689,447.0,459.0
775,1685094694689,401.0,470.0
776,1685094694689,466.0,449.0
777,1685094694689,417.0,491.0
778,1685094694689,464.0,417.0
779,1685094694689,424.0,491.0
780,1685094694689,450.0,402.0
781,1685094694689,457.0,437.0
782,1685094694689,450.0,451.0
783,1685094694689,408.0,359.0
784,1685094694689,493.0,485.0
785,1685094694689,427.0,396.0
786,1685094694689,400.0,388.0
787,1685094694689,486.0,434.0
788,1685094694689,417.0,422.0
789,1685094694689,423.0,417.0
790,1685094694689,391.0,409.0
791,1685094694689,453.0,457.0
792,1685094694689,414.0,486.0
793,1685094694689,444.0,420.0
794,1685094694689,415.0,503.0
795,1685094694689,461.0,415.0
796,1685094694689,431.0,480.0
797,1685094694689,447.0,430.0
798,1685094694689,450.0,408.0
799,1685094694689,479.0,483.0
800,1685094694689,401.0,345.0
801,1685094694689,483.0,463.0
802,1685094694689,467.0,428.0
803,1685094694689,377.0,372.0
804,1685094694689,447.0,405.0
805,1685094694689,426.0,433.0
806,1685094694689,422.0,424.0
807,1685094694689,386.0,428.0
808,1685094694689,452.0,453.0
809,1685094694689,410.0,485.0
810,1685094694689,462.0,431.0
811,1685094694689,409.0,489.0
812,1685094694689,464.0,412.0
813,1685094694689,445.0,470.0
814,1685094694689,445.0,436.0
815,1685094694689,445.0,390.0
816,1685094694689,494.0,501.0
817,1685094694689,403.0,363.0
818,1685094694689,454.0,430.0
819,1685094694689,496.0,455.0
820,1685094694689,388.0,400.0
821,1685094694689,420.0,396.0
822,1685094694689,407.0,415.0
823,1685094694689,448.0,454.0
824,1685094694689,388.0,448.0
825,1685094694689,463.0,451.0
826,1685094694689,415.0,496.0
827,1685094694689,460.0,423.0
828,1685094694689,427.0,493.0
829,1685094694689,457.0,417.0
830,1685094694689,458.0,454.0
831,1685094694689,453.0,452.0
832,1685094694689,416.0,360.0
833,1685094694689,496.0,486.0
834,1685094694689,426.0,393.0
835,1685094694689,414.0,405.0
836,1685094694689,486.0,450.0
837,1685094694689,412.0,413.0
838,1685094694689,413.0,403.0
839,1685094694689,393.0,416.0
840,1685094694689,445.0,453.0
841,1685094694689,402.0,479.0
842,1685094694689,459.0,445.0
843,1685094694689,409.0,490.0
844,1685094694689,476.0,424.0
845,1685094694689,430.0,478.0
846,1685094694689,444.0,401.0
847,1685094694689,456.0,438.0
848,1685094694689,461.0,454.0
849,1685094694689,403.0,346.0
850,1685094694689,481.0,469.0
851,1685094694689,445.0,415.0
852,1685094694689,381.0,380.0
853,1685094694689,454.0,411.0
854,1685094694689,415.0,420.0
855,1685094694689,426.0,424.0
856,1685094694689,389.0,424.0
857,1685094694689,456.0,464.0
858,1685094694689,412.0,485.0
859,1685094694689,450.0,428.0
860,1685094694689,411.0,490.0
861,1685094694689,464.0,414.0
862,1685094694689,437.0,465.0
863,1685094694689,449.0,432.0
864,1685094694689,440.0,385.0
865,1685094694689,480.0,484.0
866,1685094694689,386.0,355.0
867,1685094694689,472.0,452.0
868,1685094694689,491.0,452.0
869,1685094694689,386.0,396.0
870,1685094694689,431.0,407.0
871,1685094694689,419.0,425.0
872,1685094694689,441.0,440.0
873,1685094694689,390.0,445.0
874,1685094694689,452.0,443.0
875,1685094694689,418.0,500.0
876,1685094694689,458.0,414.0
877,1685094694689,412.0,484.0
878,1685094694689,460.0,417.0
879,1685094694689,451.0,472.0
880,1685094694689,446.0,437.0
881,1685094694689,424.0,375.0
882,1685094694689,499.0,496.0
883,1685094694689,417.0,386.0
884,1685094694689,432.0,408.0
885,1685094694689,491.0,449.0
886,1685094694689,407.0,399.0
887,1685094694689,405.0,401.0
888,1685094694689,395.0,409.0
889,1685094694689,446.0,460.0
890,1685094694689,391.0,455.0
891,1685094694689,458.0,445.0
892,1685094694689,419.0,507.0
893,1685094694689,465.0,417.0
894,1685094694689,432.0,491.0
895,1685094694689,458.0,419.0
896,1685094694689,462.0,441.0
897,1685094694689,458.0,460.0
898,1685094694689,411.0,343.0
899,1685094694689,498.0,480.0
900,1685094694689,431.0,402.0
901,1685094694689,383.0,383.0
902,1685094694689,470.0,440.0
903,1685094694689,415.0,401.0
904,1685094694689,412.0,422.0
905,1685094694689,387.0,420.0
906,1685094694689,460.0,466.0
907,1685094694689,414.0,491.0
908,1685094694689,454.0,421.0
909,1685094694689,416.0,505.0
910,1685094694689,464.0,412.0
911,1685094694689,431.0,478.0
912,1685094694689,442.0,414.0
913,1685094694689,436.0,399.0
914,1685094694689,477.0,482.0
915,1685094694689,391.0,357.0
916,1685094694689,476.0,453.0
917,1685094694689,479.0,438.0
918,1685094694689,383.0,377.0
919,1685094694689,437.0,411.0
920,1685094694689,426.0,427.0
921,1685094694689,436.0,446.0
922,1685094694689,399.0,438.0
923,1685094694689,457.0,461.0
924,1685094694689,413.0,489.0
925,1685094694689,459.0,424.0
926,1685094694689,411.0,495.0
927,1685094694689,450.0,402.0
928,1685094694689,445.0,467.0
929,1685094694689,438.0,417.0
930,1685094694689,438.0,383.0
931,1685094694689,496.0,509.0
932,1685094694689,411.0,371.0
933,1685094694689,447.0,436.0
934,1685094694689,509.0,450.0
935,1685094694689,402.0,395.0
936,1685094694689,421.0,408.0
937,1685094694689,410.0,416.0
938,1685094694689,445.0,455.0
939,1685094694689,390.0,455.0
940,1685094694689,459.0,449.0
941,1685094694689,419.0,503.0
942,1685094694689,458.0,411.0
943,1685094694689,424.0,502.0
944,1685094694689,458.0,420.0
945,1685094694689,463.0,440.0
946,1685094694689,460.0,462.0
947,1685094694689,412.0,357.0
948,1685094694689,492.0,481.0
949,1685094694689,427.0,399.0
950,1685094694689,398.0,383.0
951,1685094694689,481.0,430.0
952,1685094694689,419.0,417.0
953,1685094694689,411.0,402.0
954,1685094694689,387.0,423.0
955,1685094694689,455.0,453.0
956,1685094694689,415.0,487.0
957,1685094694689,460.0,443.0
958,1685094694689,418.0,504.0
959,1685094694689,470.0,422.0
960,1685094694689,444.0,492.0
961,1685094694689,447.0,411.0
962,1685094694689,449.0,419.0
963,1685094694689,474.0,475.0
964,1685094694689,390.0,336.0
965,1685094694689,477.0,468.0
966,1685094694689,453.0,424.0
967,1685094694689,378.0,391.0
968,1685094694689,449.0,405.0
969,1685094694689,415.0,420.0
970,1685094694689,428.0,437.0
971,1685094694689,386.0,422.0
972,1685094694689,448.0,448.0
973,1685094694689,413.0,507.0
974,1685094694689,455.0,420.0
975,1685094694689,412.0,503.0
976,1685094694689,450.0,402.0
977,1685094694689,437.0,463.0
978,1685094694689,437.0,426.0
979,1685094694689,435.0,382.0
980,1685094694689,490.0,507.0
981,1685094694689,402.0,362.0
982,1685094694689,460.0,436.0
983,1685094694689,505.0,473.0
984,1685094694689,389.0,397.0
985,1685094694689,426.0,392.0
986,1685094694689,419.0,420.0
987,1685094694689,453.0,457.0
988,1685094694689,397.0,453.0
989,1685094694689,454.0,437.0
990,1685094694689,413.0,495.0
991,1685094694689,453.0,410.0
992,1685094694689,421.0,493.0
993,1685094694689,451.0,411.0
994,1685094694689,455.0,460.0
995,1685094694689,452.0,431.0
996,1685094694689,415.0,368.0
997,1685094694689,499.0,489.0
998,1685094694689,420.0,384.0
999,1685094694689,417.0,407.0
1000,1685094694689,492.0,447.0
1001,1685094694689,416.0,416.0
1002,1685094694689,413.0,402.0
1003,1685094694689,386.0,405.0
1004,1685094694689,450.0,457.0
1005,1685094694689,402.0,476.0
1006,1685094694689,445.0,426.0
1007,1685094694689,411.0,500.0
1008,1685094694689,463.0,411.0
1009,1685094694689,437.0,498.0
1010,1685094694689,458.0,425.0
1011,1685094694689,454.0,430.0
1012,1685094694689,463.0,470.0
1013,1685094694689,404.0,353.0
1014,1685094694689,486.0,474.0
1015,1685094694689,449.0,420.0
1016,1685094694689,377.0,367.0
1017,1685094694689,457.0,420.0
1018,1685094694689,419.0,412.0
1019,1685094694689,420.0,413.0
1020,1685094694689,381.0,414.0
1021,1685094694689,457.0,455.0
1022,1685094694689,418.0,497.0
1023,1685094694704,462.0,440.0
1024,1685094694704,420.0,498.0
1025,1685094694704,470.0,420.0
1026,1685094694704,450.0,479.0
1027,1685094694704,443.0,424.0
1028,1685094694704,440.0,391.0
1029,1685094694704,478.0,484.0
1030,1685094694704,388.0,351.0
1031,1685094694704,468.0,449.0
1032,1685094694704,491.0,451.0
1033,1685094694704,390.0,390.0
1034,1685094694704,428.0,400.0
1035,1685094694704,422.0,429.0
1036,1685094694704,444.0,457.0
1037,1685094694704,397.0,449.0
1038,1685094694704,458.0,441.0
1039,1685094694704,414.0,492.0
1040,1685094694704,461.0,421.0
1041,1685094694704,416.0,482.0
1042,1685094694704,450.0,408.0
1043,1685094694704,443.0,450.0
1044,1685094694704,445.0,450.0
1045,1685094694704,420.0,377.0
1046,1685094694704,496.0,487.0
1047,1685094694704,420.0,385.0
1048,1685094694704,435.0,412.0
1049,1685094694704,508.0,454.0
1050,1685094694704,411.0,413.0
1051,1685094694704,422.0,409.0
1052,1685094694704,406.0,412.0
1053,1685094694704,453.0,451.0
1054,1685094694704,395.0,462.0
1055,1685094694704,454.0,435.0
1056,1685094694704,411.0,499.0
1057,1685094694704,450.0,407.0
1058,1685094694704,418.0,481.0
1059,1685094694704,449.0,418.0
1060,1685094694704,457.0,435.0
1061,1685094694704,460.0,471.0
1062,1685094694704,411.0,354.0
1063,1685094694704,503.0,492.0
1064,1685094694704,440.0,400.0
1065,1685094694704,389.0,381.0
1066,1685094694704,469.0,422.0
1067,1685094694704,412.0,410.0
1068,1685094694704,413.0,416.0
1069,1685094694704,375.0,420.0
1070,1685094694704,451.0,449.0
1071,1685094694704,409.0,487.0
1072,1685094694704,460.0,438.0
1073,1685094694704,412.0,499.0
1074,1685094694704,476.0,426.0
1075,1685094694704,449.0,492.0
1076,1685094694704,443.0,414.0
1077,1685094694704,448.0,406.0
1078,1685094694704,475.0,482.0
1079,1685094694704,391.0,343.0
1080,1685094694704,470.0,449.0
1081,1685094694704,467.0,437.0
1082,1685094694704,384.0,383.0
1083,1685094694704,438.0,394.0
1084,1685094694704,410.0,416.0
1085,1685094694704,440.0,448.0
1086,1685094694704,402.0,442.0
1087,1685094694704,464.0,457.0
1088,1685094694704,414.0,491.0
1089,1685094694704,462.0,428.0
1090,1685094694704,416.0,482.0
1091,1685094694704,455.0,416.0
1092,1685094694704,445.0,462.0
1093,1685094694704,437.0,423.0
1094,1685094694704,436.0,378.0
1095,1685094694704,488.0,485.0
1096,1685094694704,405.0,376.0
1097,1685094694704,443.0,419.0
1098,1685094694704,505.0,458.0
1099,1685094694704,407.0,400.0
1100,1685094694704,414.0,393.0
1101,1685094694704,413.0,430.0
1102,1685094694704,448.0,453.0
1103,1685094694704,388.0,454.0
1104,1685094694704,464.0,450.0
1105,1685094694704,414.0,499.0
1106,1685094694704,452.0,408.0
1107,1685094694704,420.0,486.0
1108,1685094694704,442.0,399.0
1109,1685094694704,461.0,448.0
1110,1685094694704,457.0,453.0
1111,1685094694704,410.0,362.0
1112,1685094694704,501.0,489.0
1113,1685094694704,435.0,397.0
1114,1685094694704,403.0,394.0
1115,1685094694704,474.0,425.0
1116,1685094694704,419.0,428.0
1117,1685094694706,413.0,413.0
1118,1685094694706,391.0,422.0
1119,1685094694706,452.0,448.0
1120,1685094694706,401.0,470.0
1121,1685094694706,454.0,441.0
1122,1685094694706,409.0,490.0
1123,1685094694706,462.0,422.0
1124,1685094694706,446.0,479.0
1125,1685094694706,440.0,413.0
1126,1685094694706,458.0,415.0
1127,1685094694706,473.0,471.0
1128,1685094694706,385.0,345.0
1129,1685094694706,488.0,475.0
1130,1685094694706,459.0,422.0
1131,1685094694706,374.0,387.0
1132,1685094694706,441.0,409.0
1133,1685094694706,416.0,412.0
1134,1685094694706,421.0,432.0
1135,1685094694706,378.0,412.0
1136,1685094694706,461.0,468.0
1137,1685094694706,409.0,485.0
1138,1685094694706,463.0,434.0
1139,1685094694706,418.0,510.0
1140,1685094694706,462.0,408.0
1141,1685094694706,454.0,472.0
1142,1685094694706,440.0,417.0
1143,1685094694706,435.0,381.0
1144,1685094694706,489.0,489.0
1145,1685094694706,390.0,350.0
1146,1685094694706,442.0,419.0
1147,1685094694706,504.0,452.0
1148,1685094694706,391.0,393.0
1149,1685094694706,417.0,403.0
1150,1685094694706,408.0,418.0
1151,1685094694706,440.0,449.0
1152,1685094694706,393.0,456.0
1153,1685094694706,461.0,452.0
1154,1685094694706,423.0,493.0
1155,1685094694706,465.0,427.0
1156,1685094694706,421.0,494.0
1157,1685094694706,448.0,413.0
1158,1685094694706,449.0,438.0
1159,1685094694706,450.0,455.0
1160,1685094694706,409.0,359.0
1161,1685094694706,497.0,493.0
1162,1685094694706,422.0,381.0
1163,1685094694706,414.0,401.0
1164,1685094694706,489.0,442.0
1165,1685094694706,411.0,417.0
1166,1685094694706,419.0,417.0
1167,1685094694706,400.0,412.0
1168,1685094694706,460.0,454.0
1169,1685094694706,403.0,472.0
1170,1685094694706,459.0,435.0
1171,1685094694706,411.0,496.0
1172,1685094694706,454.0,404.0
1173,1685094694706,429.0,492.0
1174,1685094694706,438.0,411.0
1175,1685094694706,456.0,439.0
1176,1685094694706,464.0,477.0
1177,1685094694706,398.0,346.0
1178,1685094694706,496.0,472.0
1179,1685094694706,458.0,413.0
1180,1685094694706,385.0,396.0
1181,1685094694706,464.0,416.0
1182,1685094694706,426.0,424.0
1183,1685094694706,415.0,419.0
1184,1685094694706,380.0,414.0
1185,1685094694706,455.0,453.0
1186,1685094694706,408.0,489.0
1187,1685094694706,452.0,429.0
1188,1685094694706,412.0,494.0
1189,1685094694706,462.0,416.0
1190,1685094694706,452.0,480.0
1191,1685094694706,446.0,421.0
1192,1685094694706,441.0,402.0
1193,1685094694706,493.0,507.0
1194,1685094694706,403.0,362.0
1195,1685094694706,468.0,442.0
1196,1685094694706,490.0,440.0
1197,1685094694706,387.0,387.0
1198,1685094694706,424.0,401.0
1199,1685094694706,413.0,408.0
1200,1685094694706,435.0,445.0
1201,1685094694706,381.0,442.0
1202,1685094694706,450.0,446.0
1203,1685094694706,420.0,505.0
1204,1685094694706,466.0,428.0
1205,1685094694706,423.0,492.0
1206,1685094694706,460.0,414.0
1207,1685094694706,456.0,453.0
1208,1685094694706,448.0,446.0
1209,1685094694706,428.0,369.0
1210,1685094694706,489.0,488.0
1211,1685094694706,403.0,369.0
1212,1685094694706,420.0,407.0
1213,1685094694706,494.0,453.0
1214,1685094694706,413.0,411.0
1215,1685094694706,413.0,412.0
1216,1685094694706,404.0,419.0
1217,1685094694706,459.0,474.0
1218,1685094694706,398.0,469.0
1219,1685094694706,466.0,450.0
1220,1685094694706,415.0,488.0
1221,1685094694706,457.0,413.0
1222,1685094694706,426.0,490.0
1223,1685094694706,443.0,398.0
1224,1685094694706,451.0,435.0
1225,1685094694706,461.0,470.0
1226,1685094694706,395.0,343.0
1227,1685094694706,494.0,481.0
1228,1685094694706,443.0,408.0
1229,1685094694706,381.0,379.0
1230,1685094694706,480.0,429.0
1231,1685094694706,423.0,425.0
1232,1685094694706,417.0,413.0
1233,1685094694706,386.0,424.0
1234,1685094694706,447.0,455.0
1235,1685094694706,407.0,478.0
1236,1685094694706,452.0,435.0
1237,1685094694706,402.0,486.0
1238,1685094694706,463.0,414.0
1239,1685094694706,443.0,488.0
1240,1685094694706,442.0,421.0
1241,1685094694706,448.0,403.0
1242,1685094694706,485.0,481.0
1243,1685094694706,399.0,364.0
1244,1685094694706,485.0,453.0
1245,1685094694706,478.0,449.0
1246,1685094694706,378.0,382.0
1247,1685094694706,430.0,398.0
1248,1685094694706,413.0,420.0
1249,1685094694706,425.0,441.0
1250,1685094694706,377.0,431.0
1251,1685094694706,450.0,440.0
1252,1685094694706,414.0,495.0
1253,1685094694706,463.0,425.0
1254,1685094694706,425.0,494.0
1255,1685094694706,458.0,414.0
1256,1685094694706,455.0,481.0
1257,1685094694706,442.0,426.0
1258,1685094694706,437.0,391.0
1259,1685094694706,492.0,488.0
1260,1685094694706,405.0,368.0
1261,1685094694706,443.0,424.0
1262,1685094694706,498.0,463.0
1263,1685094694706,401.0,398.0
1264,1685094694706,408.0,398.0
1265,1685094694706,402.0,416.0
1266,1685094694706,460.0,463.0
1267,1685094694706,397.0,458.0
1268,1685094694706,469.0,459.0
1269,1685094694706,416.0,495.0
1270,1685094694706,461.0,430.0
1271,1685094694706,426.0,488.0
1272,1685094694706,451.0,405.0
1273,1685094694706,464.0,448.0
1274,1685094694706,458.0,463.0
1275,1685094694706,402.0,347.0
1276,1685094694706,491.0,487.0
1277,1685094694706,417.0,396.0
1278,1685094694706,402.0,380.0
1279,1685094694706,486.0,441.0
1280,1685094694706,422.0,420.0
1281,1685094694706,416.0,423.0
1282,1685094694706,387.0,416.0
1283,1685094694706,450.0,456.0
1284,1685094694706,409.0,474.0
1285,1685094694706,462.0,443.0
1286,1685094694735,408.0,489.0
1287,1685094694735,463.0,415.0
1288,1685094694735,433.0,481.0
1289,1685094694769,443.0,416.0
1290,1685094694769,442.0,414.0
1291,1685094694769,478.0,493.0
1292,1685094694769,400.0,348.0
1293,1685094694802,495.0,474.0
1294,1685094694802,469.0,430.0
1295,1685094694802,380.0,377.0
1296,1685094694829,449.0,411.0
1297,1685094694829,419.0,416.0
1298,1685094694829,428.0,435.0
1299,1685094694829,383.0,431.0
1300,1685094694860,450.0,453.0
1301,1685094694860,410.0,485.0
1302,1685094694860,452.0,436.0
1303,1685094694860,411.0,491.0
1304,1685094694903,463.0,414.0
1305,1685094694903,448.0,467.0
1306,1685094694903,445.0,429.0
1307,1685094694935,437.0,400.0
1308,1685094694936,494.0,495.0
1309,1685094694936,408.0,368.0
1310,1685094694936,457.0,435.0
1311,1685094694970,501.0,452.0
1312,1685094694970,392.0,408.0
1313,1685094694970,418.0,396.0
1314,1685094695000,405.0,418.0
1315,1685094695000,435.0,441.0
1316,1685094695000,391.0,453.0
1317,1685094695000,467.0,454.0
1318,1685094695031,415.0,500.0
1319,1685094695031,460.0,413.0
1320,1685094695031,422.0,494.0
1321,1685094695065,455.0,413.0
1322,1685094695065,460.0,460.0
1323,1685094695065,458.0,453.0
1324,1685094695065,416.0,360.0
1325,1685094695095,497.0,486.0
1326,1685094695095,414.0,381.0
1327,1685094695095,412.0,389.0
1328,1685094695126,487.0,448.0
1329,1685094695126,409.0,409.0
1330,1685094695126,415.0,417.0
1331,1685094695126,390.0,411.0
1332,1685094695170,458.0,466.0
1333,1685094695170,398.0,466.0
1334,1685094695170,471.0,450.0
1335,1685094695170,417.0,495.0
1336,1685094695203,459.0,424.0
1337,1685094695203,437.0,484.0
1338,1685094695203,446.0,413.0
1339,1685094695236,457.0,431.0
1340,1685094695236,465.0,457.0
1341,1685094695236,389.0,347.0
1342,1685094695237,489.0,473.0
1343,1685094695271,446.0,409.0
1344,1685094695271,382.0,392.0
1345,1685094695271,449.0,405.0
1346,1685094695303,421.0,427.0
1347,1685094695303,423.0,425.0
1348,1685094695303,394.0,435.0
1349,1685094695303,463.0,460.0
1350,1685094695337,412.0,491.0
1351,1685094695337,453.0,424.0
1352,1685094695337,411.0,490.0
1353,1685094695370,457.0,416.0
1354,1685094695370,449.0,476.0
1355,1685094695370,440.0,420.0
1356,1685094695370,437.0,385.0
1357,1685094695398,492.0,490.0
1358,1685094695398,395.0,356.0
1359,1685094695398,474.0,448.0
1360,1685094695429,493.0,448.0
1361,1685094695429,392.0,399.0
1362,1685094695429,431.0,400.0
1363,1685094695429,421.0,427.0
1364,1685094695471,439.0,453.0
1365,1685094695471,387.0,436.0
1366,1685094695471,460.0,444.0
1367,1685094695471,411.0,495.0
1368,1685094695505,460.0,424.0
1369,1685094695505,416.0,485.0
1370,1685094695505,456.0,414.0
1371,1685094695536,468.0,463.0
1372,1685094695536,451.0,429.0
1373,1685094695536,422.0,379.0
1374,1685094695536,504.0,503.0
1375,1685094695572,410.0,386.0
1376,1685094695572,432.0,408.0
1377,1685094695572,499.0,444.0
1378,1685094695603,404.0,407.0
1379,1685094695603,404.0,396.0
1380,1685094695603,393.0,415.0
1381,1685094695603,449.0,457.0
1382,1685094695634,394.0,462.0
1383,1685094695634,463.0,443.0
1384,1685094695634,418.0,506.0
1385,1685094695671,472.0,426.0
1386,1685094695671,436.0,494.0
1387,1685094695671,473.0,423.0
1388,1685094695671,477.0,446.0
1389,1685094695698,467.0,474.0
1390,1685094695698,392.0,343.0
1391,1685094695698,488.0,475.0
1392,1685094695729,429.0,403.0
1393,1685094695729,381.0,376.0
1394,1685094695729,465.0,421.0
1395,1685094695729,416.0,420.0
1396,1685094695771,413.0,421.0
1397,1685094695771,391.0,424.0
1398,1685094695771,468.0,464.0
1399,1685094695771,416.0,486.0
1400,1685094695805,458.0,437.0
1401,1685094695805,417.0,494.0
1402,1685094695805,459.0,420.0
1403,1685094695837,444.0,470.0
1404,1685094695837,439.0,415.0
1405,1685094695837,432.0,400.0
1406,1685094695837,482.0,489.0
1407,1685094695872,387.0,350.0
1408,1685094695872,473.0,458.0
1409,1685094695872,485.0,447.0
1410,1685094695904,393.0,384.0
1411,1685094695904,451.0,414.0
1412,1685094695904,431.0,427.0
1413,1685094695904,440.0,436.0
1414,1685094695935,386.0,432.0
1415,1685094695935,461.0,449.0
1416,1685094695935,416.0,490.0
1417,1685094695971,452.0,403.0
1418,1685094695971,412.0,490.0
1419,1685094695971,459.0,408.0
1420,1685094695971,447.0,455.0
1421,1685094695999,444.0,440.0
1422,1685094695999,430.0,378.0
1423,1685094695999,501.0,509.0
1424,1685094696030,402.0,365.0
1425,1685094696030,450.0,433.0
1426,1685094696030,500.0,441.0
1427,1685094696030,401.0,412.0
1428,1685094696071,413.0,391.0
1429,1685094696071,401.0,414.0
1430,1685094696071,440.0,447.0
1431,1685094696071,384.0,447.0
1432,1685094696105,460.0,452.0
1433,1685094696105,419.0,495.0
1434,1685094696105,463.0,422.0
1435,1685094696137,437.0,497.0
1436,1685094696137,453.0,408.0
1437,1685094696137,467.0,451.0
1438,1685094696137,461.0,465.0
1439,1685094696172,407.0,359.0
1440,1685094696172,497.0,481.0
1441,1685094696172,423.0,394.0
1442,1685094696204,392.0,394.0
1443,1685094696204,470.0,417.0
1444,1685094696204,414.0,420.0
1445,1685094696204,413.0,416.0
1446,1685094696238,381.0,410.0
1447,1685094696238,460.0,461.0
1448,1685094696238,413.0,478.0
1449,1685094696272,465.0,443.0
1450,1685094696272,422.0,501.0
1451,1685094696272,459.0,412.0
1452,1685094696272,436.0,484.0
1453,1685094696298,446.0,413.0
1454,1685094696298,445.0,414.0
1455,1685094696298,474.0,482.0
1456,1685094696329,391.0,338.0
1457,1685094696329,482.0,461.0
1458,1685094696329,462.0,429.0
1459,1685094696329,377.0,380.0
1460,1685094696372,452.0,414.0
1461,1685094696372,427.0,423.0
1462,1685094696372,436.0,447.0
1463,1685094696372,382.0,429.0
1464,1685094696407,457.0,451.0
1465,1685094696407,415.0,490.0
1466,1685094696407,457.0,418.0
1467,1685094696438,412.0,497.0
1468,1685094696438,451.0,397.0
1469,1685094696438,447.0,469.0
1470,1685094696438,437.0,424.0
1471,1685094696473,432.0,384.0
1472,1685094696473,486.0,492.0
1473,1685094696473,403.0,363.0
1474,1685094696504,457.0,441.0
1475,1685094696504,505.0,450.0
1476,1685094696504,392.0,398.0
1477,1685094696504,423.0,404.0
1478,1685094696537,404.0,412.0
1479,1685094696537,452.0,465.0
1480,1685094696537,394.0,448.0
1481,1685094696572,451.0,439.0
1482,1685094696572,407.0,498.0
1483,1685094696572,447.0,420.0
1484,1685094696572,421.0,491.0
1485,1685094696599,460.0,415.0
1486,1685094696599,454.0,451.0
1487,1685094696599,455.0,456.0
1488,1685094696630,412.0,365.0
1489,1685094696630,503.0,488.0
1490,1685094696630,426.0,391.0
1491,1685094696630,414.0,404.0
1492,1685094696672,492.0,436.0
1493,1685094696672,411.0,415.0
1494,1685094696672,409.0,412.0
1495,1685094696672,382.0,402.0
1496,1685094696707,448.0,452.0
1497,1685094696707,410.0,476.0
1498,1685094696707,455.0,439.0
1499,1685094696739,420.0,505.0
1500,1685094696739,470.0,422.0
1501,1685094696739,439.0,496.0
1502,1685094696739,454.0,419.0
1503,1685094696773,456.0,425.0
1504,1685094696773,471.0,463.0
1505,1685094696773,391.0,352.0
1506,1685094696807,488.0,469.0
1507,1685094696807,450.0,419.0
1508,1685094696807,376.0,370.0
1509,1685094696807,446.0,414.0
1510,1685094696837,419.0,419.0
1511,1685094696837,415.0,426.0
1512,1685094696837,388.0,427.0
1513,1685094696872,462.0,460.0
1514,1685094696872,412.0,489.0
1515,1685094696872,464.0,434.0
1516,1685094696872,415.0,499.0
1517,1685094696900,470.0,430.0
1518,1685094696900,446.0,465.0
1519,1685094696900,437.0,422.0
1520,1685094696934,433.0,387.0
1521,1685094696934,484.0,484.0
1522,1685094696934,389.0,352.0
1523,1685094696934,467.0,454.0
1524,1685094696972,498.0,439.0
1525,1685094696972,398.0,399.0
1526,1685094696972,435.0,403.0
1527,1685094696972,414.0,423.0
1528,1685094697008,450.0,458.0
1529,1685094697008,393.0,446.0
1530,1685094697008,457.0,449.0
1531,1685094697039,411.0,496.0
1532,1685094697039,449.0,427.0
1533,1685094697039,416.0,480.0
1534,1685094697039,451.0,409.0
1535,1685094697075,451.0,449.0
1536,1685094697075,452.0,448.0
1537,1685094697075,419.0,372.0
1538,1685094697107,504.0,501.0
1539,1685094697107,427.0,382.0
1540,1685094697107,429.0,409.0
1541,1685094697107,500.0,444.0
1542,1685094697139,411.0,410.0
1543,1685094697139,414.0,405.0
1544,1685094697139,395.0,414.0
1545,1685094697172,446.0,440.0
1546,1685094697172,397.0,479.0
1547,1685094697172,461.0,441.0
1548,1685094697172,411.0,492.0
1549,1685094697206,464.0,420.0
1550,1685094697206,433.0,489.0
1551,1685094697206,450.0,406.0
1552,1685094697236,461.0,437.0
1553,1685094697236,471.0,467.0
1554,1685094697236,399.0,346.0
1555,1685094697236,501.0,488.0
1556,1685094697272,429.0,396.0
1557,1685094697272,377.0,380.0
1558,1685094697272,462.0,414.0
1559,1685094697272,414.0,407.0
1560,1685094697308,416.0,418.0
1561,1685094697308,377.0,415.0
1562,1685094697308,456.0,453.0
1563,1685094697340,414.0,493.0
1564,1685094697340,455.0,428.0
1565,1685094697340,417.0,497.0
1566,1685094697340,471.0,424.0
1567,1685094697377,454.0,482.0
1568,1685094697377,447.0,419.0
1569,1685094697377,445.0,406.0
1570,1685094697393,484.0,477.0
1571,1685094697393,382.0,343.0
1572,1685094697393,473.0,455.0
1573,1685094697393,487.0,441.0
1574,1685094697439,386.0,392.0
1575,1685094697439,424.0,400.0
1576,1685094697439,415.0,424.0
1577,1685094697473,440.0,447.0
1578,1685094697473,389.0,444.0
1579,1685094697473,461.0,450.0
1580,1685094697473,413.0,496.0
1581,1685094697502,459.0,423.0
1582,1685094697502,415.0,477.0
1583,1685094697502,458.0,412.0
1584,1685094697534,448.0,453.0
1585,1685094697534,445.0,443.0
1586,1685094697534,423.0,374.0
1587,1685094697534,502.0,499.0
1588,1685094697574,419.0,381.0
1589,1685094697574,437.0,425.0
1590,1685094697574,506.0,447.0
1591,1685094697574,413.0,418.0
1592,1685094697608,417.0,395.0
1593,1685094697608,410.0,434.0
1594,1685094697608,446.0,453.0
1595,1685094697640,394.0,457.0
1596,1685094697640,470.0,450.0
1597,1685094697640,418.0,496.0
1598,1685094697640,457.0,416.0
1599,1685094697676,429.0,488.0
1600,1685094697676,449.0,406.0
1601,1685094697676,461.0,449.0
1602,1685094697708,460.0,464.0
1603,1685094697708,398.0,349.0
1604,1685094697708,501.0,479.0
1605,1685094697708,435.0,410.0
1606,1685094697740,389.0,384.0
1607,1685094697740,476.0,428.0
1608,1685094697740,413.0,420.0
1609,1685094697774,412.0,413.0
1610,1685094697774,383.0,425.0
1611,1685094697774,454.0,456.0
1612,1685094697774,404.0,468.0
1613,1685094697803,452.0,438.0
1614,1685094697803,401.0,489.0
1615,1685094697803,472.0,424.0
1616,1685094697835,447.0,476.0
1617,1685094697835,448.0,426.0
1618,1685094697835,449.0,408.0
1619,1685094697835,486.0,486.0
1620,1685094697874,393.0,343.0
1621,1685094697874,480.0,457.0
1622,1685094697874,473.0,441.0
1623,1685094697874,378.0,379.0
1624,1685094697910,429.0,403.0
1625,1685094697910,413.0,414.0
1626,1685094697910,424.0,435.0
1627,1685094697941,391.0,444.0
1628,1685094697941,461.0,454.0
1629,1685094697941,415.0,497.0
1630,1685094697941,466.0,436.0
1631,1685094697977,416.0,490.0
1632,1685094697977,459.0,404.0
1633,1685094697977,452.0,467.0
1634,1685094698009,441.0,429.0
1635,1685094698009,429.0,375.0
1636,1685094698009,487.0,476.0
1637,1685094698009,398.0,366.0
1638,1685094698042,440.0,420.0
1639,1685094698042,505.0,474.0
1640,1685094698042,399.0,395.0
1641,1685094698075,422.0,419.0
1642,1685094698075,408.0,416.0
1643,1685094698075,452.0,452.0
1644,1685094698075,392.0,456.0
1645,1685094698104,467.0,451.0
1646,1685094698104,420.0,492.0
1647,1685094698104,460.0,423.0
1648,1685094698135,415.0,487.0
1649,1685094698135,451.0,401.0
1650,1685094698135,459.0,443.0
1651,1685094698135,455.0,456.0
1652,1685094698175,398.0,346.0
1653,1685094698175,504.0,494.0
1654,1685094698175,437.0,393.0
1655,1685094698175,401.0,396.0
1656,1685094698210,484.0,438.0
1657,1685094698210,416.0,410.0
1658,1685094698210,417.0,419.0
1659,1685094698241,390.0,420.0
1660,1685094698241,456.0,460.0
1661,1685094698241,399.0,471.0
1662,1685094698241,456.0,436.0
1663,1685094698277,410.0,490.0
1664,1685094698277,458.0,413.0
1665,1685094698277,440.0,486.0
1666,1685094698309,442.0,415.0
1667,1685094698309,447.0,417.0
1668,1685094698309,486.0,484.0
1669,1685094698309,399.0,356.0
1670,1685094698340,483.0,457.0
1671,1685094698340,459.0,427.0
1672,1685094698340,372.0,375.0
1673,1685094698375,439.0,403.0
1674,1685094698375,416.0,422.0
1675,1685094698375,417.0,420.0
1676,1685094698375,375.0,426.0
1677,1685094698403,456.0,459.0
1678,1685094698403,418.0,502.0
1679,1685094698403,461.0,431.0
1680,1685094698436,416.0,502.0
1681,1685094698436,462.0,418.0
1682,1685094698436,456.0,469.0
1683,1685094698436,445.0,434.0
1684,1685094698475,438.0,377.0
1685,1685094698475,491.0,482.0
1686,1685094698475,396.0,343.0
1687,1685094698475,458.0,442.0
1688,1685094698511,500.0,451.0
1689,1685094698511,394.0,399.0
1690,1685094698511,417.0,402.0
1691,1685094698542,407.0,422.0
1692,1685094698542,448.0,452.0
1693,1685094698542,390.0,452.0
1694,1685094698542,463.0,442.0
1695,1685094698578,415.0,498.0
1696,1685094698578,460.0,419.0
1697,1685094698578,406.0,474.0
1698,1685094698609,462.0,427.0
1699,1685094698609,463.0,453.0
1700,1685094698609,452.0,449.0
1701,1685094698609,413.0,368.0
1702,1685094698640,507.0,487.0
1703,1685094698640,414.0,381.0
1704,1685094698640,424.0,403.0
1705,1685094698675,495.0,444.0
1706,1685094698675,422.0,421.0
1707,1685094698675,417.0,414.0
1708,1685094698675,392.0,415.0
1709,1685094698704,454.0,465.0
1710,1685094698704,412.0,475.0
1711,1685094698704,458.0,441.0
1712,1685094698736,407.0,487.0
1713,1685094698736,451.0,413.0
1714,1685094698736,423.0,477.0
1715,1685094698736,444.0,409.0
1716,1685094698775,446.0,425.0
1717,1685094698775,471.0,481.0
1718,1685094698775,400.0,346.0
1719,1685094698775,495.0,476.0
1720,1685094698811,455.0,422.0
1721,1685094698811,377.0,372.0
1722,1685094698811,457.0,420.0
1723,1685094698844,416.0,411.0
1724,1685094698844,419.0,425.0
1725,1685094698844,380.0,418.0
1726,1685094698844,453.0,463.0
1727,1685094698878,416.0,492.0
1728,1685094698878,464.0,435.0
1729,1685094698878,414.0,488.0
1730,1685094698909,461.0,422.0
1731,1685094698909,445.0,480.0
1732,1685094698909,443.0,428.0
1733,1685094698909,447.0,394.0
1734,1685094698940,492.0,482.0
1735,1685094698940,392.0,357.0
1736,1685094698940,476.0,444.0
1737,1685094698976,485.0,443.0
1738,1685094698976,385.0,391.0
1739,1685094698976,426.0,400.0
1740,1685094698976,409.0,415.0
1741,1685094699003,440.0,454.0
1742,1685094699003,383.0,433.0
1743,1685094699003,456.0,452.0
1744,1685094699035,421.0,511.0
1745,1685094699035,454.0,421.0
1746,1685094699035,426.0,497.0
1747,1685094699035,465.0,415.0
1748,1685094699076,466.0,460.0
1749,1685094699076,458.0,457.0
1750,1685094699076,412.0,362.0
1751,1685094699076,501.0,484.0
1752,1685094699112,410.0,386.0
1753,1685094699112,429.0,407.0
1754,1685094699112,507.0,454.0
1755,1685094699144,405.0,412.0
1756,1685094699144,411.0,399.0
1757,1685094699144,397.0,415.0
1758,1685094699144,449.0,455.0
1759,1685094699178,405.0,476.0
1760,1685094699178,466.0,441.0
1761,1685094699178,412.0,497.0
1762,1685094699210,464.0,419.0
1763,1685094699210,434.0,486.0
1764,1685094699210,449.0,411.0
1765,1685094699210,450.0,429.0
1766,1685094699241,462.0,469.0
1767,1685094699241,399.0,348.0
1768,1685094699241,495.0,472.0
1769,1685094699277,444.0,415.0
1770,1685094699277,378.0,360.0
1771,1685094699277,468.0,423.0
1772,1685094699277,422.0,412.0
1773,1685094699307,418.0,434.0
1774,1685094699307,381.0,417.0
1775,1685094699307,463.0,456.0
1776,1685094699336,415.0,490.0
1777,1685094699336,452.0,430.0
1778,1685094699336,416.0,491.0
1779,1685094699336,463.0,408.0
1780,1685094699376,440.0,481.0
1781,1685094699376,443.0,424.0
1782,1685094699376,434.0,394.0
1783,1685094699376,486.0,485.0
1784,1685094699412,396.0,350.0
1785,1685094699412,475.0,447.0
1786,1685094699412,482.0,445.0
1787,1685094699444,375.0,386.0
1788,1685094699444,432.0,414.0
1789,1685094699444,406.0,409.0
1790,1685094699444,442.0,438.0
1791,1685094699479,390.0,450.0
1792,1685094699479,451.0,450.0
1793,1685094699479,414.0,493.0
1794,1685094699511,458.0,422.0
1795,1685094699511,414.0,495.0
1796,1685094699511,460.0,418.0
1797,1685094699511,452.0,473.0
1798,1685094699542,454.0,437.0
1799,1685094699542,421.0,368.0
1800,1685094699542,499.0,491.0
1801,1685094699576,409.0,376.0
1802,1685094699576,436.0,415.0
1803,1685094699576,508.0,463.0
1804,1685094699576,402.0,399.0
1805,1685094699605,411.0,398.0
1806,1685094699605,392.0,408.0
1807,1685094699605,449.0,464.0
1808,1685094699636,392.0,455.0
1809,1685094699636,471.0,454.0
1810,1685094699636,416.0,499.0
1811,1685094699636,470.0,426.0
1812,1685094699676,435.0,498.0
1813,1685094699676,457.0,410.0
1814,1685094699676,463.0,446.0
1815,1685094699676,461.0,458.0
1816,1685094699713,404.0,344.0
1817,1685094699713,505.0,493.0
1818,1685094699713,428.0,400.0
1819,1685094699744,383.0,370.0
1820,1685094699744,474.0,434.0
1821,1685094699744,412.0,414.0
1822,1685094699744,420.0,421.0
1823,1685094699780,387.0,413.0
1824,1685094699780,469.0,461.0
1825,1685094699780,413.0,478.0
1826,1685094699813,463.0,440.0
1827,1685094699813,418.0,490.0
1828,1685094699813,467.0,412.0
1829,1685094699813,439.0,482.0
1830,1685094699843,440.0,419.0
1831,1685094699843,442.0,401.0
1832,1685094699843,486.0,478.0
1833,1685094699877,388.0,344.0
1834,1685094699877,474.0,461.0
1835,1685094699877,483.0,443.0
1836,1685094699877,365.0,375.0
1837,1685094699906,439.0,412.0
1838,1685094699906,421.0,428.0
1839,1685094699906,442.0,449.0
1840,1685094699937,382.0,433.0
1841,1685094699937,463.0,454.0
1842,1685094699937,406.0,489.0
1843,1685094699937,451.0,423.0
1844,1685094699977,411.0,494.0
1845,1685094699977,457.0,404.0
1846,1685094699977,446.0,463.0
1847,1685094699977,449.0,439.0
1848,1685094700013,434.0,370.0
1849,1685094700013,503.0,505.0
1850,1685094700013,415.0,371.0
1851,1685094700047,440.0,429.0
1852,1685094700047,512.0,456.0
1853,1685094700047,385.0,405.0
1854,1685094700047,425.0,406.0
1855,1685094700081,393.0,403.0
1856,1685094700081,443.0,447.0
1857,1685094700081,376.0,445.0
1858,1685094700112,464.0,447.0
1859,1685094700112,426.0,507.0
1860,1685094700112,467.0,417.0
1861,1685094700112,433.0,499.0
1862,1685094700147,460.0,409.0
1863,1685094700147,469.0,456.0
1864,1685094700147,462.0,471.0
1865,1685094700177,408.0,349.0
1866,1685094700177,490.0,488.0
1867,1685094700177,428.0,397.0
1868,1685094700177,384.0,386.0
1869,1685094700211,488.0,431.0
1870,1685094700211,397.0,415.0
1871,1685094700211,414.0,407.0
1872,1685094700240,372.0,418.0
1873,1685094700240,465.0,461.0
1874,1685094700240,404.0,470.0
1875,1685094700240,468.0,446.0
1876,1685094700277,426.0,498.0
1877,1685094700277,472.0,422.0
1878,1685094700277,444.0,478.0
1879,1685094700277,440.0,411.0
1880,1685094700314,458.0,430.0
1881,1685094700314,479.0,474.0
1882,1685094700314,389.0,341.0
1883,1685094700346,464.0,455.0
1884,1685094700346,454.0,424.0
1885,1685094700346,355.0,383.0
1886,1685094700346,451.0,405.0
1887,1685094700381,411.0,441.0
1888,1685094700381,439.0,434.0
1889,1685094700381,377.0,426.0
1890,1685094700412,467.0,464.0
1891,1685094700412,418.0,481.0
1892,1685094700412,457.0,424.0
1893,1685094700412,416.0,496.0
1894,1685094700446,458.0,409.0
1895,1685094700446,449.0,473.0
1896,1685094700446,439.0,422.0
1897,1685094700478,437.0,386.0
1898,1685094700478,489.0,500.0
1899,1685094700478,402.0,360.0
1900,1685094700478,448.0,435.0
1901,1685094700507,519.0,452.0
1902,1685094700507,382.0,400.0
1903,1685094700507,434.0,396.0
1904,1685094700540,402.0,422.0
1905,1685094700540,456.0,460.0
1906,1685094700540,381.0,444.0
1907,1685094700540,462.0,439.0
1908,1685094700578,420.0,502.0
1909,1685094700578,462.0,411.0
1910,1685094700578,427.0,500.0
1911,1685094700578,462.0,409.0
1912,1685094700615,461.0,454.0
1913,1685094700615,453.0,452.0
1914,1685094700615,418.0,355.0
1915,1685094700647,494.0,491.0
1916,1685094700647,430.0,394.0
1917,1685094700647,407.0,408.0
1918,1685094700647,491.0,438.0
1919,1685094700682,396.0,418.0
1920,1685094700682,408.0,405.0
1921,1685094700682,381.0,411.0
1922,1685094700714,457.0,458.0
1923,1685094700714,388.0,455.0
1924,1685094700714,473.0,453.0
1925,1685094700714,422.0,502.0
1926,1685094700745,466.0,404.0
1927,1685094700745,445.0,502.0
1928,1685094700745,455.0,414.0
1929,1685094700782,465.0,424.0
1930,1685094700782,472.0,479.0
1931,1685094700782,397.0,332.0
1932,1685094700782,478.0,479.0
1933,1685094700814,449.0,406.0
1934,1685094700814,358.0,387.0
1935,1685094700814,460.0,413.0
1936,1685094700838,407.0,428.0
1937,1685094700838,419.0,415.0
1938,1685094700838,373.0,423.0
1939,1685094700838,465.0,456.0
1940,1685094700878,421.0,501.0
1941,1685094700878,464.0,427.0
1942,1685094700878,423.0,503.0
1943,1685094700878,461.0,409.0
1944,1685094700916,457.0,476.0
1945,1685094700916,442.0,425.0
1946,1685094700916,439.0,388.0
1947,1685094700948,482.0,493.0
1948,1685094700948,394.0,347.0
1949,1685094700948,450.0,448.0
1950,1685094700948,502.0,441.0
1951,1685094700982,368.0,395.0
1952,1685094700982,432.0,400.0
1953,1685094700982,405.0,421.0
1954,1685094701013,452.0,456.0
1955,1685094701013,392.0,446.0
1956,1685094701013,464.0,461.0
1957,1685094701013,419.0,491.0
1958,1685094701047,456.0,416.0
1959,1685094701047,428.0,494.0
1960,1685094701047,453.0,401.0
1961,1685094701079,457.0,460.0
1962,1685094701079,447.0,441.0
1963,1685094701079,421.0,365.0
1964,1685094701079,499.0,501.0
1965,1685094701108,426.0,383.0
1966,1685094701108,419.0,421.0
1967,1685094701108,514.0,459.0
1968,1685094701140,393.0,405.0
1969,1685094701140,419.0,400.0
1970,1685094701140,386.0,415.0
1971,1685094701140,456.0,456.0
1972,1685094701179,400.0,457.0
1973,1685094701179,461.0,446.0
1974,1685094701179,411.0,495.0
1975,1685094701179,462.0,413.0
1976,1685094701216,437.0,491.0
1977,1685094701216,456.0,407.0
1978,1685094701216,456.0,441.0
1979,1685094701248,457.0,469.0
1980,1685094701248,401.0,344.0
1981,1685094701248,486.0,494.0
1982,1685094701248,449.0,403.0
1983,1685094701282,365.0,386.0
1984,1685094701282,466.0,418.0
1985,1685094701282,409.0,411.0
1986,1685094701314,410.0,407.0
1987,1685094701314,368.0,409.0
1988,1685094701314,459.0,463.0
1989,1685094701314,420.0,481.0
1990,1685094701346,459.0,436.0
1991,1685094701346,427.0,499.0
1992,1685094701346,464.0,408.0
1993,1685094701379,453.0,500.0
1994,1685094701379,448.0,417.0
1995,1685094701379,450.0,404.0
1996,1685094701379,477.0,493.0
1997,1685094701410,386.0,344.0
1998,1685094701410,461.0,456.0
1999,1685094701410,473.0,440.0
2000,1685094701443,371.0,397.0
2001,1685094701443,430.0,397.0
2002,1685094701443,414.0,416.0
2003,1685094701443,447.0,455.0
2004,1685094701479,386.0,435.0
2005,1685094701479,465.0,456.0
2006,1685094701479,432.0,497.0
2007,1685094701479,458.0,417.0
2008,1685094701517,425.0,496.0
2009,1685094701517,453.0,398.0
2010,1685094701517,447.0,456.0
2011,1685094701548,434.0,439.0
2012,1685094701548,418.0,367.0
2013,1685094701548,483.0,493.0
2014,1685094701548,400.0,368.0
2015,1685094701584,432.0,419.0
2016,1685094701584,508.0,460.0
2017,1685094701584,406.0,407.0
2018,1685094701616,425.0,407.0
2019,1685094701616,414.0,410.0
2020,1685094701616,454.0,456.0
2021,1685094701616,407.0,468.0
2022,1685094701647,458.0,439.0
2023,1685094701647,416.0,500.0
2024,1685094701647,451.0,413.0
2025,1685094701679,421.0,484.0
2026,1685094701679,439.0,410.0
2027,1685094701679,450.0,439.0
2028,1685094701679,447.0,470.0
2029,1685094701710,408.0,350.0
2030,1685094701710,496.0,486.0
2031,1685094701710,432.0,409.0
2032,1685094701741,391.0,386.0
2033,1685094701741,476.0,431.0
2034,1685094701741,426.0,415.0
2035,1685094701741,419.0,406.0
2036,1685094701780,396.0,410.0
2037,1685094701780,454.0,450.0
2038,1685094701780,411.0,476.0
2039,1685094701780,454.0,439.0
2040,1685094701818,412.0,495.0
2041,1685094701818,458.0,422.0
2042,1685094701818,436.0,485.0
2043,1685094701851,441.0,439.0
2044,1685094701851,443.0,405.0
2045,1685094701851,471.0,497.0
2046,1685094701851,394.0,351.0
2047,1685094701885,481.0,465.0
2048,1685094701885,457.0,437.0
2049,1685094701885,394.0,379.0
2050,1685094701916,438.0,408.0
2051,1685094701916,431.0,413.0
2052,1685094701916,429.0,438.0
2053,1685094701916,401.0,436.0
2054,1685094701948,458.0,455.0
2055,1685094701948,424.0,497.0
2056,1685094701948,461.0,424.0
2057,1685094701981,423.0,499.0
2058,1685094701981,456.0,419.0
2059,1685094701981,444.0,471.0
2060,1685094701981,435.0,434.0
2061,1685094702011,425.0,384.0
2062,1685094702011,471.0,488.0
2063,1685094702011,394.0,362.0
2064,1685094702043,454.0,421.0
2065,1685094702043,483.0,463.0
2066,1685094702043,414.0,406.0
2067,1685094702043,424.0,397.0
2068,1685094702080,436.0,425.0
2069,1685094702080,461.0,463.0
2070,1685094702080,414.0,460.0
2071,1685094702080,473.0,450.0
2072,1685094702118,433.0,501.0
2073,1685094702118,473.0,439.0
2074,1685094702118,424.0,494.0
2075,1685094702150,431.0,403.0
2076,1685094702150,436.0,443.0
2077,1685094702150,430.0,448.0
2078,1685094702150,403.0,353.0
2079,1685094702185,486.0,492.0
2080,1685094702185,408.0,400.0
2081,1685094702185,431.0,393.0
2082,1685094702217,481.0,449.0
2083,1685094702217,444.0,429.0
2084,1685094702217,427.0,410.0
2085,1685094702217,424.0,423.0
2086,1685094702251,456.0,448.0
2087,1685094702251,427.0,473.0
2088,1685094702251,454.0,435.0
2089,1685094702280,418.0,490.0
2090,1685094702280,451.0,414.0
2091,1685094702280,422.0,488.0
2092,1685094702280,434.0,422.0
2093,1685094702313,444.0,421.0
2094,1685094702313,448.0,476.0
2095,1685094702313,399.0,355.0
2096,1685094702345,490.0,484.0
2097,1685094702345,442.0,429.0
2098,1685094702345,407.0,369.0
2099,1685094702345,449.0,427.0
2100,1685094702381,441.0,416.0
2101,1685094702381,432.0,418.0
2102,1685094702381,412.0,432.0
2103,1685094702381,457.0,448.0
2104,1685094702419,418.0,496.0
2105,1685094702419,455.0,431.0
2106,1685094702419,416.0,495.0
2107,1685094702450,452.0,419.0
2108,1685094702450,443.0,474.0
2109,1685094702450,436.0,436.0
2110,1685094702450,439.0,389.0
2111,1685094702485,475.0,497.0
2112,1685094702485,397.0,356.0
2113,1685094702485,466.0,422.0
2114,1685094702517,465.0,455.0
2115,1685094702517,422.0,392.0
2116,1685094702517,423.0,405.0
2117,1685094702517,431.0,411.0
2118,1685094702548,441.0,449.0
2119,1685094702548,416.0,454.0
2120,1685094702548,461.0,456.0
2121,1685094702581,436.0,490.0
2122,1685094702581,460.0,430.0
2123,1685094702581,418.0,503.0
2124,1685094702581,452.0,409.0
2125,1685094702612,439.0,455.0
2126,1685094702612,439.0,440.0
2127,1685094702612,407.0,361.0
2128,1685094702643,478.0,483.0
2129,1685094702643,396.0,380.0
2130,1685094702643,441.0,403.0
2131,1685094702643,471.0,445.0
2132,1685094702682,435.0,423.0
2133,1685094702682,425.0,411.0
2134,1685094702682,431.0,425.0
2135,1685094702682,459.0,461.0
2136,1685094702719,426.0,466.0
2137,1685094702719,456.0,431.0
2138,1685094702719,422.0,489.0
2139,1685094702751,457.0,417.0
2140,1685094702751,415.0,483.0
2141,1685094702751,436.0,405.0
2142,1685094702751,439.0,428.0
2143,1685094702786,445.0,470.0
2144,1685094702786,393.0,351.0
2145,1685094702786,484.0,477.0
2146,1685094702819,425.0,414.0
2147,1685094702819,413.0,382.0
2148,1685094702819,456.0,419.0
2149,1685094702819,447.0,418.0
2150,1685094702850,423.0,423.0
2151,1685094702850,418.0,424.0
2152,1685094702850,450.0,454.0
2153,1685094702882,425.0,489.0
2154,1685094702882,444.0,427.0
2155,1685094702882,416.0,489.0
2156,1685094702882,455.0,422.0
2157,1685094702913,429.0,479.0
2158,1685094702913,439.0,421.0
2159,1685094702913,438.0,398.0
2160,1685094702944,477.0,490.0
2161,1685094702944,396.0,362.0
2162,1685094702944,483.0,443.0
2163,1685094702944,461.0,441.0
2164,1685094702982,411.0,381.0
2165,1685094702982,430.0,402.0
2166,1685094702982,437.0,406.0
2167,1685094702982,426.0,439.0
2168,1685094703020,407.0,439.0
2169,1685094703020,448.0,450.0
2170,1685094703020,424.0,505.0
2171,1685094703052,455.0,426.0
2172,1685094703052,418.0,498.0
2173,1685094703052,460.0,407.0
2174,1685094703052,451.0,463.0
2175,1685094703087,434.0,435.0
2176,1685094703087,425.0,375.0
2177,1685094703087,477.0,479.0
2178,1685094703119,392.0,370.0
2179,1685094703119,453.0,414.0
2180,1685094703119,473.0,439.0
2181,1685094703119,429.0,417.0
2182,1685094703150,409.0,388.0
2183,1685094703150,417.0,421.0
2184,1685094703150,451.0,465.0
2185,1685094703182,417.0,466.0
2186,1685094703182,458.0,445.0
2187,1685094703182,421.0,498.0
2188,1685094703182,453.0,418.0
2189,1685094703213,436.0,488.0
2190,1685094703213,438.0,407.0
2191,1685094703213,446.0,442.0
2192,1685094703247,447.0,456.0
2193,1685094703247,407.0,349.0
2194,1685094703247,489.0,485.0
2195,1685094703247,415.0,405.0
2196,1685094703282,421.0,383.0
2197,1685094703282,461.0,431.0
2198,1685094703282,445.0,418.0
2199,1685094703282,413.0,423.0
2200,1685094703321,413.0,420.0
2201,1685094703321,449.0,459.0
2202,1685094703321,422.0,488.0
2203,1685094703353,444.0,427.0
2204,1685094703353,410.0,472.0
2205,1685094703353,449.0,417.0
2206,1685094703353,428.0,480.0
2207,1685094703388,433.0,421.0
2208,1685094703388,443.0,395.0
2209,1685094703388,472.0,495.0
2210,1685094703419,398.0,359.0
2211,1685094703419,497.0,458.0
2212,1685094703419,453.0,439.0
2213,1685094703419,412.0,382.0
2214,1685094703452,432.0,408.0
2215,1685094703452,440.0,425.0
2216,1685094703452,423.0,430.0
2217,1685094703483,394.0,429.0
2218,1685094703483,442.0,445.0
2219,1685094703483,417.0,496.0
2220,1685094703483,449.0,422.0
2221,1685094703514,417.0,502.0
2222,1685094703514,450.0,419.0
2223,1685094703514,447.0,474.0
2224,1685094703545,440.0,433.0
2225,1685094703545,429.0,379.0
2226,1685094703545,488.0,489.0
2227,1685094703545,401.0,369.0
2228,1685094703583,468.0,427.0
2229,1685094703583,478.0,454.0
2230,1685094703583,425.0,400.0
2231,1685094703583,408.0,398.0
2232,1685094703621,426.0,412.0
2233,1685094703621,440.0,466.0
2234,1685094703621,401.0,450.0
2235,1685094703653,445.0,451.0
2236,1685094703653,417.0,500.0
2237,1685094703653,452.0,420.0
2238,1685094703653,426.0,496.0
2239,1685094703688,449.0,407.0
2240,1685094703688,455.0,447.0
2241,1685094703688,449.0,456.0
2242,1685094703719,416.0,357.0
2243,1685094703719,495.0,479.0
2244,1685094703719,410.0,393.0
2245,1685094703719,429.0,386.0
2246,1685094703751,471.0,437.0
2247,1685094703751,439.0,421.0
2248,1685094703751,406.0,406.0
2249,1685094703783,414.0,422.0
2250,1685094703783,450.0,452.0
2251,1685094703783,414.0,479.0
2252,1685094703783,451.0,436.0
2253,1685094703814,411.0,496.0
2254,1685094703814,453.0,413.0
2255,1685094703814,419.0,478.0
2256,1685094703845,440.0,414.0
2257,1685094703845,443.0,415.0
2258,1685094703845,468.0,481.0
2259,1685094703845,400.0,358.0
2260,1685094703883,489.0,463.0
2261,1685094703883,440.0,427.0
2262,1685094703883,413.0,379.0
2263,1685094703883,439.0,414.0
2264,1685094703922,439.0,420.0
2265,1685094703922,428.0,438.0
2266,1685094703922,393.0,434.0
2267,1685094703953,441.0,456.0
2268,1685094703953,412.0,497.0
2269,1685094703953,446.0,418.0
2270,1685094703953,410.0,496.0
2271,1685094703988,452.0,414.0
2272,1685094703988,440.0,471.0
2273,1685094703988,441.0,434.0
2274,1685094704020,436.0,389.0
2275,1685094704020,481.0,487.0
2276,1685094704020,406.0,366.0
2277,1685094704020,480.0,428.0
2278,1685094704051,484.0,450.0
2279,1685094704051,419.0,393.0
2280,1685094704051,415.0,400.0
2281,1685094704083,424.0,409.0
2282,1685094704083,430.0,454.0
2283,1685094704083,396.0,444.0
2284,1685094704083,446.0,450.0
2285,1685094704114,415.0,502.0
2286,1685094704114,451.0,422.0
2287,1685094704114,419.0,495.0
2288,1685094704146,459.0,423.0
2289,1685094704146,458.0,450.0
2290,1685094704146,453.0,455.0
2291,1685094704146,425.0,367.0
2292,1685094704183,500.0,490.0
2293,1685094704183,409.0,386.0
2294,1685094704183,443.0,397.0
2295,1685094704183,470.0,442.0
2296,1685094704223,432.0,420.0
2297,1685094704223,404.0,411.0
2298,1685094704223,404.0,410.0
2299,1685094704256,442.0,473.0
2300,1685094704256,407.0,485.0
2301,1685094704256,453.0,445.0
2302,1685094704256,417.0,502.0
2303,1685094704290,458.0,421.0
2304,1685094704290,430.0,490.0
2305,1685094704290,446.0,418.0
2306,1685094704321,455.0,421.0
2307,1685094704321,469.0,460.0
2308,1685094704321,408.0,356.0
2309,1685094704321,495.0,470.0
2310,1685094704353,438.0,420.0
2311,1685094704353,406.0,372.0
2312,1685094704353,452.0,416.0
2313,1685094704386,439.0,430.0
2314,1685094704386,418.0,430.0
2315,1685094704386,401.0,422.0
2316,1685094704386,445.0,458.0
2317,1685094704416,415.0,482.0
2318,1685094704416,444.0,416.0
2319,1685094704416,409.0,482.0
2320,1685094704449,455.0,407.0
2321,1685094704449,431.0,471.0
2322,1685094704449,433.0,423.0
2323,1685094704449,439.0,393.0
2324,1685094704483,486.0,488.0
2325,1685094704483,402.0,365.0
2326,1685094704483,485.0,439.0
2327,1685094704483,478.0,446.0
2328,1685094704523,415.0,396.0
2329,1685094704523,422.0,402.0
2330,1685094704523,427.0,422.0
2331,1685094704554,428.0,450.0
2332,1685094704554,402.0,450.0
2333,1685094704554,438.0,439.0
2334,1685094704554,410.0,498.0
2335,1685094704590,451.0,427.0
2336,1685094704590,407.0,476.0
2337,1685094704590,460.0,405.0
2338,1685094704621,453.0,451.0
2339,1685094704621,451.0,449.0
2340,1685094704621,437.0,373.0
2341,1685094704621,502.0,487.0
2342,1685094704655,408.0,391.0
2343,1685094704655,456.0,408.0
2344,1685094704655,485.0,440.0
2345,1685094704688,423.0,415.0
2346,1685094704688,413.0,409.0
2347,1685094704688,401.0,408.0
2348,1685094704688,435.0,459.0
2349,1685094704717,399.0,462.0
2350,1685094704717,453.0,449.0
2351,1685094704717,410.0,496.0
2352,1685094704748,461.0,423.0
2353,1685094704748,430.0,496.0
2354,1685094704748,454.0,413.0
2355,1685094704748,461.0,442.0
2356,1685094704784,458.0,466.0
2357,1685094704784,407.0,336.0
2358,1685094704784,504.0,481.0
2359,1685094704784,427.0,403.0
2360,1685094704823,412.0,387.0
2361,1685094704823,460.0,412.0
2362,1685094704823,439.0,431.0
2363,1685094704855,412.0,413.0
2364,1685094704855,393.0,426.0
2365,1685094704855,447.0,464.0
2366,1685094704855,402.0,480.0
2367,1685094704891,449.0,433.0
2368,1685094704891,405.0,489.0
2369,1685094704891,462.0,424.0
2370,1685094704922,435.0,473.0
2371,1685094704922,445.0,429.0
2372,1685094704922,449.0,395.0
2373,1685094704922,482.0,490.0
2374,1685094704954,389.0,351.0
2375,1685094704954,491.0,455.0
2376,1685094704954,470.0,447.0
2377,1685094704986,408.0,394.0
2378,1685094704986,426.0,402.0
2379,1685094704986,427.0,416.0
2380,1685094704986,429.0,450.0
2381,1685094705020,394.0,440.0
2382,1685094705020,446.0,450.0
2383,1685094705020,407.0,496.0
2384,1685094705049,443.0,416.0
2385,1685094705049,416.0,498.0
2386,1685094705049,457.0,408.0
2387,1685094705049,447.0,463.0
2388,1685094705089,443.0,438.0
2389,1685094705089,432.0,373.0
2390,1685094705089,502.0,498.0
2391,1685094705089,414.0,372.0
2392,1685094705125,466.0,417.0
2393,1685094705125,482.0,455.0
2394,1685094705125,418.0,412.0
2395,1685094705156,417.0,404.0
2396,1685094705156,408.0,417.0
2397,1685094705156,433.0,451.0
2398,1685094705156,390.0,456.0
2399,1685094705191,455.0,445.0
2400,1685094705191,412.0,501.0
2401,1685094705191,456.0,425.0
2402,1685094705222,419.0,473.0
2403,1685094705222,446.0,414.0
2404,1685094705222,461.0,440.0
2405,1685094705222,461.0,468.0
2406,1685094705256,413.0,350.0
2407,1685094705256,510.0,491.0
2408,1685094705256,425.0,396.0
2409,1685094705285,418.0,394.0
2410,1685094705285,467.0,424.0
2411,1685094705285,426.0,407.0
2412,1685094705285,402.0,420.0
2413,1685094705317,385.0,408.0
2414,1685094705317,434.0,447.0
2415,1685094705317,406.0,491.0
2416,1685094705348,443.0,433.0
2417,1685094705348,410.0,503.0
2418,1685094705348,464.0,421.0
2419,1685094705348,435.0,494.0
2420,1685094705385,449.0,419.0
2421,1685094705385,460.0,407.0
2422,1685094705385,479.0,481.0
2423,1685094705385,401.0,354.0
2424,1685094705425,491.0,449.0
2425,1685094705425,461.0,434.0
2426,1685094705425,401.0,377.0
2427,1685094705457,426.0,411.0
2428,1685094705457,431.0,411.0
2429,1685094705457,418.0,447.0
2430,1685094705457,395.0,443.0
2431,1685094705492,450.0,446.0
2432,1685094705492,414.0,493.0
2433,1685094705492,453.0,423.0
2434,1685094705523,413.0,493.0
2435,1685094705523,462.0,413.0
2436,1685094705523,446.0,472.0
2437,1685094705523,441.0,429.0
2438,1685094705554,440.0,374.0
2439,1685094705554,492.0,494.0
2440,1685094705554,399.0,364.0
2441,1685094705587,481.0,436.0
2442,1685094705587,492.0,442.0
2443,1685094705587,418.0,412.0
2444,1685094705587,417.0,398.0
2445,1685094705619,418.0,420.0
2446,1685094705619,443.0,465.0
2447,1685094705619,391.0,451.0
2448,1685094705649,445.0,443.0
2449,1685094705649,412.0,500.0
2450,1685094705649,443.0,404.0
2451,1685094705649,416.0,490.0
2452,1685094705685,448.0,400.0
2453,1685094705685,463.0,450.0
2454,1685094705685,460.0,459.0
2455,1685094705685,409.0,351.0
2456,1685094705726,507.0,488.0
2457,1685094705726,423.0,407.0
2458,1685094705726,425.0,396.0
2459,1685094705757,484.0,433.0
2460,1685094705757,434.0,413.0
2461,1685094705757,402.0,400.0
2462,1685094705757,395.0,409.0
2463,1685094705793,440.0,462.0
2464,1685094705793,407.0,476.0
2465,1685094705793,448.0,428.0
2466,1685094705825,401.0,492.0
2467,1685094705825,457.0,419.0
2468,1685094705825,432.0,486.0
2469,1685094705825,445.0,411.0
2470,1685094705859,454.0,418.0
2471,1685094705859,477.0,481.0
2472,1685094705859,409.0,359.0
2473,1685094705888,497.0,468.0
2474,1685094705888,447.0,424.0
2475,1685094705888,395.0,379.0
2476,1685094705888,441.0,407.0
2477,1685094705919,428.0,424.0
2478,1685094705919,412.0,429.0
2479,1685094705919,385.0,419.0
2480,1685094705950,443.0,455.0
2481,1685094705950,413.0,497.0
2482,1685094705950,449.0,428.0
2483,1685094705950,420.0,505.0
2484,1685094705990,455.0,416.0
2485,1685094705990,441.0,473.0
2486,1685094705990,436.0,428.0
2487,1685094705990,436.0,389.0
2488,1685094706027,478.0,488.0
2489,1685094706027,401.0,359.0
2490,1685094706027,474.0,438.0
2491,1685094706058,489.0,450.0
2492,1685094706058,414.0,396.0
2493,1685094706058,419.0,393.0
2494,1685094706058,413.0,430.0
2495,1685094706093,431.0,444.0
2496,1685094706093,395.0,460.0
2497,1685094706093,445.0,445.0
2498,1685094706126,415.0,500.0
2499,1685094706126,450.0,415.0
2500,1685094706126,423.0,496.0
2501,1685094706126,453.0,407.0
2502,1685094706157,455.0,448.0
2503,1685094706157,455.0,451.0
2504,1685094706157,421.0,360.0
2505,1685094706189,493.0,485.0
2506,1685094706189,418.0,389.0
2507,1685094706189,438.0,407.0
2508,1685094706189,478.0,440.0
2509,1685094706220,421.0,413.0
2510,1685094706220,408.0,412.0
2511,1685094706220,401.0,415.0
2512,1685094706256,448.0,465.0
2513,1685094706256,407.0,475.0
2514,1685094706256,444.0,436.0
2515,1685094706256,404.0,488.0
2516,1685094706285,456.0,416.0
2517,1685094706285,431.0,483.0
2518,1685094706285,447.0,415.0
2519,1685094706285,459.0,425.0
2520,1685094706327,458.0,469.0
2521,1685094706327,417.0,350.0
2522,1685094706327,495.0,472.0
2523,1685094706358,442.0,422.0
2524,1685094706358,404.0,375.0
2525,1685094706358,443.0,410.0
2526,1685094706358,435.0,426.0
2527,1685094706393,409.0,432.0
2528,1685094706393,394.0,417.0
2529,1685094706393,433.0,448.0
2530,1685094706426,411.0,483.0
2531,1685094706426,441.0,427.0
2532,1685094706426,414.0,495.0
2533,1685094706426,450.0,417.0
2534,1685094706456,442.0,470.0
2535,1685094706456,448.0,420.0
2536,1685094706456,452.0,390.0
2537,1685094706490,483.0,488.0
2538,1685094706490,410.0,358.0
2539,1685094706490,480.0,448.0
2540,1685094706490,469.0,448.0
2541,1685094706522,416.0,396.0
2542,1685094706522,419.0,404.0
2543,1685094706522,430.0,416.0
2544,1685094706551,426.0,453.0
2545,1685094706551,393.0,443.0
2546,1685094706551,435.0,450.0
2547,1685094706551,413.0,504.0
2548,1685094706585,452.0,428.0
2549,1685094706585,422.0,495.0
2550,1685094706585,451.0,400.0
2551,1685094706585,451.0,451.0
2552,1685094706628,440.0,428.0
2553,1685094706628,445.0,371.0
2554,1685094706628,484.0,483.0
2555,1685094706661,411.0,374.0
2556,1685094706661,453.0,413.0
2557,1685094706661,473.0,441.0
2558,1685094706661,433.0,425.0
2559,1685094706694,410.0,410.0
2560,1685094706694,417.0,414.0
2561,1685094706694,439.0,460.0
2562,1685094706725,406.0,470.0
2563,1685094706725,444.0,452.0
2564,1685094706725,417.0,503.0
2565,1685094706725,447.0,413.0
2566,1685094706757,427.0,478.0
2567,1685094706757,436.0,401.0
2568,1685094706757,455.0,432.0
2569,1685094706790,438.0,461.0
2570,1685094706790,415.0,350.0
2571,1685094706790,493.0,484.0
2572,1685094706790,425.0,413.0
2573,1685094706820,420.0,375.0
2574,1685094706820,450.0,428.0
2575,1685094706820,444.0,425.0
2576,1685094706853,416.0,424.0
2577,1685094706853,407.0,423.0
2578,1685094706853,438.0,455.0
2579,1685094706853,412.0,488.0
2580,1685094706886,437.0,436.0
2581,1685094706886,418.0,491.0
2582,1685094706886,455.0,414.0
2583,1685094706886,436.0,486.0
2584,1685094706929,441.0,412.0
2585,1685094706929,457.0,405.0
2586,1685094706929,477.0,484.0
2587,1685094706960,416.0,351.0
2588,1685094706960,495.0,448.0
2589,1685094706960,459.0,447.0
2590,1685094706960,426.0,390.0
2591,1685094706995,421.0,395.0
2592,1685094706995,440.0,423.0
2593,1685094706995,415.0,446.0
2594,1685094707027,397.0,431.0
2595,1685094707027,434.0,453.0
2596,1685094707027,410.0,501.0
2597,1685094707027,437.0,429.0
2598,1685094707058,414.0,496.0
2599,1685094707058,455.0,419.0
2600,1685094707058,456.0,463.0
2601,1685094707090,447.0,436.0
2602,1685094707090,448.0,374.0
2603,1685094707090,489.0,492.0
2604,1685094707090,408.0,369.0
2605,1685094707121,467.0,420.0
2606,1685094707121,466.0,451.0
2607,1685094707121,434.0,419.0
2608,1685094707152,404.0,397.0
2609,1685094707152,434.0,432.0
2610,1685094707152,430.0,462.0
2611,1685094707152,404.0,466.0
2612,1685094707186,441.0,464.0
2613,1685094707186,414.0,500.0
2614,1685094707186,449.0,424.0
2615,1685094707186,423.0,488.0
2616,1685094707229,444.0,401.0
2617,1685094707229,463.0,433.0
2618,1685094707229,440.0,457.0
2619,1685094707261,419.0,336.0
2620,1685094707261,501.0,494.0
2621,1685094707261,412.0,399.0
2622,1685094707261,440.0,386.0
2623,1685094707296,450.0,426.0
2624,1685094707296,449.0,433.0
2625,1685094707296,406.0,423.0
2626,1685094707327,414.0,427.0
2627,1685094707327,428.0,463.0
2628,1685094707327,417.0,488.0
2629,1685094707327,443.0,425.0
2630,1685094707359,408.0,486.0
2631,1685094707359,448.0,399.0
2632,1685094707359,434.0,480.0
2633,1685094707390,438.0,407.0
2634,1685094707390,450.0,406.0
2635,1685094707390,474.0,489.0
2636,1685094707390,411.0,358.0
2637,1685094707422,504.0,461.0
2638,1685094707422,442.0,445.0
2639,1685094707422,432.0,383.0
2640,1685094707453,428.0,409.0
2641,1685094707453,447.0,428.0
2642,1685094707453,415.0,435.0
2643,1685094707453,407.0,437.0
2644,1685094707489,426.0,448.0
2645,1685094707489,411.0,481.0
2646,1685094707489,436.0,429.0
2647,1685094707489,404.0,491.0
2648,1685094707529,454.0,412.0
2649,1685094707529,443.0,473.0
2650,1685094707529,445.0,432.0
2651,1685094707560,453.0,377.0
2652,1685094707560,488.0,497.0
2653,1685094707560,410.0,368.0
2654,1685094707560,490.0,426.0
2655,1685094707597,467.0,452.0
2656,1685094707597,438.0,405.0
2657,1685094707597,407.0,401.0
2658,1685094707628,427.0,410.0
2659,1685094707628,424.0,462.0
2660,1685094707628,403.0,449.0
2661,1685094707628,442.0,463.0
2662,1685094707660,415.0,497.0
2663,1685094707660,452.0,427.0
2664,1685094707660,425.0,499.0
2665,1685094707692,450.0,409.0
2666,1685094707692,454.0,448.0
2667,1685094707692,453.0,449.0
2668,1685094707692,424.0,348.0
2669,1685094707726,495.0,477.0
2670,1685094707726,404.0,396.0
2671,1685094707726,446.0,397.0
2672,1685094707756,457.0,441.0
2673,1685094707756,446.0,411.0
2674,1685094707756,402.0,421.0
2675,1685094707756,418.0,412.0
2676,1685094707794,431.0,468.0
2677,1685094707794,411.0,485.0
2678,1685094707794,439.0,435.0
2679,1685094707794,415.0,491.0
2680,1685094707830,453.0,420.0
2681,1685094707830,430.0,472.0
2682,1685094707830,439.0,403.0
2683,1685094707862,454.0,412.0
2684,1685094707862,463.0,477.0
2685,1685094707862,409.0,346.0
2686,1685094707862,498.0,459.0
2687,1685094707898,436.0,437.0
2688,1685094707898,426.0,382.0
2689,1685094707898,432.0,406.0
2690,1685094707929,444.0,428.0
2691,1685094707929,414.0,446.0
2692,1685094707929,405.0,432.0
2693,1685094707929,437.0,453.0
2694,1685094707960,412.0,479.0
2695,1685094707960,441.0,423.0
2696,1685094707960,405.0,488.0
2697,1685094707993,444.0,414.0
2698,1685094707993,436.0,466.0
2699,1685094707993,440.0,427.0
2700,1685094707993,445.0,379.0
2701,1685094708023,490.0,494.0
2702,1685094708023,413.0,374.0
2703,1685094708023,490.0,436.0
2704,1685094708054,472.0,451.0
2705,1685094708054,433.0,399.0
2706,1685094708054,417.0,400.0
2707,1685094708054,433.0,419.0
2708,1685094708086,423.0,453.0
2709,1685094708086,397.0,447.0
2710,1685094708086,429.0,451.0
2711,1685094708086,413.0,499.0
2712,1685094708131,439.0,417.0
2713,1685094708131,421.0,503.0
2714,1685094708131,456.0,410.0
2715,1685094708163,464.0,451.0
2716,1685094708163,454.0,453.0
2717,1685094708163,426.0,356.0
2718,1685094708163,504.0,486.0
2719,1685094708197,409.0,398.0
2720,1685094708197,452.0,396.0
2721,1685094708197,461.0,433.0
2722,1685094708229,441.0,413.0
2723,1685094708229,396.0,404.0
2724,1685094708229,412.0,411.0
2725,1685094708229,425.0,454.0
2726,1685094708262,407.0,479.0
2727,1685094708262,439.0,446.0
2728,1685094708262,417.0,503.0
2729,1685094708292,453.0,423.0
2730,1685094708292,432.0,485.0
2731,1685094708292,443.0,403.0
2732,1685094708292,458.0,423.0
2733,1685094708323,465.0,472.0
2734,1685094708323,407.0,346.0
2735,1685094708323,499.0,469.0
2736,1685094708355,425.0,427.0
2737,1685094708355,418.0,373.0
2738,1685094708355,440.0,418.0
2739,1685094708355,443.0,426.0
2740,1685094708386,410.0,436.0
2741,1685094708386,404.0,431.0
2742,1685094708386,439.0,461.0
2743,1685094708386,410.0,489.0
2744,1685094708433,436.0,422.0
2745,1685094708433,405.0,489.0
2746,1685094708433,448.0,405.0
2747,1685094708464,435.0,466.0
2748,1685094708464,442.0,426.0
2749,1685094708464,448.0,387.0
2750,1685094708464,487.0,493.0
2751,1685094708503,400.0,358.0
2752,1685094708503,498.0,444.0
2753,1685094708503,475.0,456.0
2754,1685094708518,423.0,390.0
2755,1685094708518,417.0,402.0
2756,1685094708518,433.0,418.0
2757,1685094708518,430.0,454.0
2758,1685094708549,392.0,450.0
2759,1685094708549,431.0,437.0
2760,1685094708549,407.0,493.0
2761,1685094708597,441.0,418.0
2762,1685094708597,416.0,491.0
2763,1685094708597,455.0,419.0
2764,1685094708597,456.0,458.0
2765,1685094708628,450.0,448.0
2766,1685094708628,429.0,367.0
2767,1685094708628,505.0,497.0
2768,1685094708659,415.0,385.0
2769,1685094708659,461.0,400.0
2770,1685094708659,473.0,447.0
2771,1685094708659,433.0,409.0
2772,1685094708691,400.0,403.0
2773,1685094708691,409.0,409.0
2774,1685094708691,428.0,460.0
2775,1685094708691,402.0,462.0
2776,1685094708733,444.0,455.0
2777,1685094708733,409.0,506.0
2778,1685094708733,458.0,425.0
2779,1685094708764,430.0,488.0
2780,1685094708764,448.0,408.0
2781,1685094708764,461.0,426.0
2782,1685094708764,460.0,463.0
2783,1685094708799,413.0,348.0
2784,1685094708799,505.0,471.0
2785,1685094708799,424.0,409.0
2786,1685094708830,423.0,382.0
2787,1685094708830,448.0,421.0
2788,1685094708830,441.0,423.0
2789,1685094708830,407.0,424.0
2790,1685094708862,399.0,427.0
2791,1685094708862,437.0,459.0
2792,1685094708862,413.0,497.0
2793,1685094708894,445.0,436.0
2794,1685094708894,410.0,492.0
2795,1685094708894,454.0,411.0
2796,1685094708894,434.0,473.0
2797,1685094708925,443.0,417.0
2798,1685094708925,451.0,390.0
2799,1685094708925,484.0,489.0
2800,1685094708956,405.0,356.0
2801,1685094708956,498.0,446.0
2802,1685094708956,469.0,454.0
2803,1685094708956,423.0,393.0
2804,1685094708998,419.0,403.0
2805,1685094708998,434.0,422.0
2806,1685094708998,418.0,453.0
2807,1685094708998,406.0,456.0
2808,1685094709033,429.0,455.0
2809,1685094709033,404.0,489.0
2810,1685094709033,443.0,412.0
2811,1685094709064,412.0,488.0
2812,1685094709064,453.0,407.0
2813,1685094709064,451.0,460.0
2814,1685094709064,450.0,442.0
2815,1685094709100,434.0,363.0
2816,1685094709100,507.0,496.0
2817,1685094709100,414.0,375.0
2818,1685094709132,465.0,409.0
2819,1685094709132,480.0,449.0
2820,1685094709132,436.0,412.0
2821,1685094709132,408.0,400.0
2822,1685094709164,419.0,420.0
2823,1685094709164,427.0,464.0
2824,1685094709164,399.0,464.0
2825,1685094709196,442.0,446.0
2826,1685094709196,403.0,498.0
2827,1685094709196,449.0,430.0
2828,1685094709196,424.0,495.0
2829,1685094709229,450.0,409.0
2830,1685094709229,459.0,430.0
2831,1685094709229,456.0,458.0
2832,1685094709262,415.0,350.0
2833,1685094709262,508.0,484.0
2834,1685094709262,426.0,400.0
2835,1685094709262,422.0,378.0
2836,1685094709291,452.0,417.0
2837,1685094709291,443.0,422.0
2838,1685094709291,401.0,418.0
2839,1685094709291,387.0,415.0
2840,1685094709333,433.0,454.0
2841,1685094709333,401.0,482.0
2842,1685094709333,444.0,434.0
2843,1685094709365,415.0,498.0
2844,1685094709365,451.0,416.0
2845,1685094709365,442.0,481.0
2846,1685094709365,444.0,423.0
2847,1685094709400,463.0,402.0
2848,1685094709400,488.0,493.0
2849,1685094709400,403.0,350.0
2850,1685094709431,504.0,451.0
2851,1685094709431,464.0,451.0
2852,1685094709431,423.0,384.0
2853,1685094709431,421.0,402.0
2854,1685094709466,439.0,413.0
2855,1685094709466,417.0,455.0
2856,1685094709466,388.0,435.0
2857,1685094709494,440.0,460.0
2858,1685094709494,414.0,494.0
2859,1685094709494,443.0,418.0
2860,1685094709494,411.0,489.0
2861,1685094709525,452.0,402.0
2862,1685094709525,449.0,453.0
2863,1685094709525,450.0,443.0
2864,1685094709557,444.0,369.0
2865,1685094709557,504.0,491.0
2866,1685094709557,412.0,364.0
2867,1685094709557,475.0,422.0
2868,1685094709589,481.0,451.0
2869,1685094709589,432.0,415.0
2870,1685094709589,403.0,409.0
2871,1685094709589,422.0,419.0
2872,1685094709634,440.0,467.0
2873,1685094709634,400.0,460.0
2874,1685094709634,447.0,452.0
2875,1685094709666,403.0,491.0
2876,1685094709666,440.0,408.0
2877,1685094709666,420.0,490.0
2878,1685094709666,451.0,413.0
2879,1685094709701,456.0,436.0
2880,1685094709701,457.0,452.0
2881,1685094709701,416.0,344.0
2882,1685094709732,514.0,487.0
2883,1685094709732,428.0,415.0
2884,1685094709732,433.0,386.0
2885,1685094709732,467.0,423.0
2886,1685094709764,439.0,422.0
2887,1685094709764,398.0,416.0
2888,1685094709764,393.0,419.0
2889,1685094709796,415.0,445.0
2890,1685094709796,402.0,488.0
2891,1685094709796,435.0,432.0
2892,1685094709796,408.0,503.0
2893,1685094709827,452.0,405.0
2894,1685094709827,436.0,487.0
2895,1685094709827,446.0,421.0
2896,1685094709858,456.0,410.0
2897,1685094709858,495.0,494.0
2898,1685094709858,408.0,349.0
2899,1685094709858,507.0,455.0
2900,1685094709890,460.0,436.0
2901,1685094709890,416.0,372.0
2902,1685094709890,431.0,407.0
2903,1685094709890,429.0,416.0
2904,1685094709935,403.0,434.0
2905,1685094709935,382.0,433.0
2906,1685094709935,433.0,465.0
2907,1685094709967,409.0,494.0
2908,1685094709967,444.0,435.0
2909,1685094709967,412.0,488.0
2910,1685094709967,463.0,418.0
2911,1685094710002,447.0,468.0
2912,1685094710002,451.0,426.0
2913,1685094710002,444.0,373.0
2914,1685094710034,500.0,486.0
2915,1685094710034,406.0,364.0
2916,1685094710034,475.0,422.0
2917,1685094710034,483.0,447.0
2918,1685094710065,432.0,413.0
2919,1685094710065,407.0,401.0
2920,1685094710065,419.0,420.0
2921,1685094710096,435.0,461.0
2922,1685094710096,389.0,453.0
2923,1685094710096,446.0,455.0
2924,1685094710096,410.0,495.0
2925,1685094710127,441.0,405.0
2926,1685094710127,422.0,492.0
2927,1685094710127,452.0,411.0
2928,1685094710161,461.0,449.0
2929,1685094710161,459.0,459.0
2930,1685094710161,412.0,340.0
2931,1685094710161,510.0,493.0
2932,1685094710190,422.0,402.0
2933,1685094710190,439.0,391.0
2934,1685094710190,467.0,433.0
2935,1685094710190,433.0,418.0
2936,1685094710235,407.0,429.0
2937,1685094710235,396.0,408.0
2938,1685094710235,434.0,460.0
2939,1685094710267,401.0,481.0
2940,1685094710267,433.0,426.0
2941,1685094710267,408.0,498.0
2942,1685094710267,454.0,417.0
2943,1685094710302,427.0,484.0
2944,1685094710302,445.0,411.0
2945,1685094710302,457.0,422.0
2946,1685094710334,476.0,475.0
2947,1685094710334,411.0,352.0
2948,1685094710334,510.0,468.0
2949,1685094710334,454.0,429.0
2950,1685094710368,414.0,381.0
2951,1685094710368,436.0,411.0
2952,1685094710368,431.0,417.0
2953,1685094710396,408.0,431.0
2954,1685094710396,384.0,421.0
2955,1685094710396,444.0,472.0
2956,1685094710396,404.0,489.0
2957,1685094710427,440.0,430.0
2958,1685094710427,404.0,498.0
2959,1685094710427,454.0,414.0
2960,1685094710458,450.0,474.0
2961,1685094710458,448.0,428.0
2962,1685094710458,449.0,385.0
2963,1685094710458,502.0,490.0
2964,1685094710498,408.0,355.0
2965,1685094710498,488.0,430.0
2966,1685094710498,482.0,449.0
2967,1685094710498,422.0,398.0
2968,1685094710536,412.0,404.0
2969,1685094710536,408.0,403.0
2970,1685094710536,432.0,459.0
2971,1685094710567,384.0,443.0
2972,1685094710567,443.0,451.0
2973,1685094710567,412.0,502.0
2974,1685094710567,451.0,430.0
2975,1685094710602,421.0,491.0
2976,1685094710602,453.0,419.0
2977,1685094710602,459.0,453.0
2978,1685094710634,462.0,455.0
2979,1685094710634,423.0,353.0
2980,1685094710634,510.0,487.0
2981,1685094710634,417.0,381.0
2982,1685094710669,448.0,405.0
2983,1685094710669,467.0,430.0
2984,1685094710669,436.0,417.0
2985,1685094710701,404.0,415.0
2986,1685094710701,399.0,417.0
2987,1685094710701,438.0,464.0
2988,1685094710701,403.0,473.0
2989,1685094710727,443.0,436.0
2990,1685094710727,410.0,495.0
2991,1685094710727,451.0,417.0
2992,1685094710760,429.0,477.0
2993,1685094710760,442.0,409.0
2994,1685094710760,445.0,419.0
2995,1685094710760,470.0,474.0
2996,1685094710792,406.0,350.0
2997,1685094710792,509.0,480.0
2998,1685094710792,443.0,414.0
2999,1685094710792,416.0,372.0
3000,1685094710837,445.0,418.0
3001,1685094710837,437.0,422.0
3002,1685094710837,415.0,435.0
3003,1685094710870,392.0,418.0
3004,1685094710870,427.0,464.0
3005,1685094710870,412.0,496.0
3006,1685094710870,437.0,427.0
3007,1685094710904,402.0,494.0
3008,1685094710904,448.0,412.0
3009,1685094710904,443.0,474.0
3010,1685094710935,447.0,421.0
3011,1685094710935,445.0,380.0
3012,1685094710935,500.0,497.0
3013,1685094710935,410.0,362.0
3014,1685094710966,500.0,440.0
3015,1685094710966,484.0,452.0
3016,1685094710966,419.0,387.0
3017,1685094710998,417.0,400.0
3018,1685094710998,422.0,410.0
3019,1685094710998,418.0,450.0
3020,1685094710998,379.0,446.0
3021,1685094711030,427.0,442.0
3022,1685094711030,410.0,503.0
3023,1685094711030,443.0,423.0
3024,1685094711061,421.0,497.0
3025,1685094711061,460.0,411.0
3026,1685094711061,463.0,467.0
3027,1685094711061,468.0,456.0
3028,1685094711093,427.0,358.0
3029,1685094711093,512.0,493.0
3030,1685094711093,410.0,376.0
3031,1685094711093,446.0,411.0
3032,1685094711137,481.0,444.0
3033,1685094711137,430.0,410.0
3034,1685094711137,399.0,408.0
3035,1685094711169,398.0,411.0
3036,1685094711169,437.0,462.0
3037,1685094711169,401.0,477.0
3038,1685094711169,441.0,443.0
3039,1685094711204,408.0,493.0
3040,1685094711204,453.0,414.0
3041,1685094711204,432.0,485.0
3042,1685094711236,447.0,412.0
3043,1685094711236,458.0,422.0
3044,1685094711236,468.0,470.0
3045,1685094711236,407.0,341.0
3046,1685094711267,506.0,474.0
3047,1685094711267,435.0,408.0
3048,1685094711267,408.0,383.0
3049,1685094711298,451.0,416.0
3050,1685094711298,433.0,419.0
3051,1685094711298,418.0,437.0
3052,1685094711298,394.0,430.0
3053,1685094711330,437.0,458.0
3054,1685094711330,405.0,491.0
3055,1685094711330,437.0,424.0
3056,1685094711361,411.0,500.0
3057,1685094711361,456.0,401.0
3058,1685094711361,438.0,476.0
3059,1685094711361,444.0,416.0
3060,1685094711393,441.0,386.0
3061,1685094711393,498.0,494.0
3062,1685094711393,409.0,357.0
3063,1685094711393,484.0,426.0
3064,1685094711438,481.0,462.0
3065,1685094711438,419.0,391.0
3066,1685094711438,426.0,404.0
3067,1685094711469,428.0,428.0
3068,1685094711469,416.0,438.0
3069,1685094711469,385.0,439.0
3070,1685094711469,429.0,446.0
3071,1685094711505,407.0,493.0
3072,1685094711505,450.0,418.0
3073,1685094711505,411.0,492.0
3074,1685094711537,456.0,416.0
3075,1685094711537,459.0,469.0
3076,1685094711537,460.0,447.0
3077,1685094711537,436.0,371.0
3078,1685094711568,514.0,500.0
3079,1685094711568,409.0,369.0
3080,1685094711568,460.0,417.0
3081,1685094711599,487.0,450.0
3082,1685094711599,427.0,405.0
3083,1685094711599,397.0,398.0
3084,1685094711599,394.0,397.0
3085,1685094711630,431.0,457.0
3086,1685094711630,396.0,480.0
3087,1685094711630,447.0,446.0
3088,1685094711661,405.0,505.0
3089,1685094711661,456.0,421.0
3090,1685094711661,430.0,497.0
3091,1685094711661,458.0,417.0
3092,1685094711693,464.0,422.0
3093,1685094711693,465.0,464.0
3094,1685094711693,412.0,340.0
3095,1685094711693,508.0,474.0
3096,1685094711738,429.0,401.0
3097,1685094711738,407.0,373.0
3098,1685094711738,450.0,418.0
3099,1685094711771,434.0,417.0
3100,1685094711771,413.0,427.0
3101,1685094711771,395.0,432.0
3102,1685094711771,439.0,456.0
3103,1685094711805,408.0,493.0
3104,1685094711805,445.0,437.0
3105,1685094711805,411.0,488.0
3106,1685094711837,454.0,409.0
3107,1685094711837,432.0,482.0
3108,1685094711837,440.0,404.0
3109,1685094711837,448.0,398.0
3110,1685094711868,489.0,475.0
3111,1685094711868,393.0,350.0
3112,1685094711868,498.0,462.0
3113,1685094711900,472.0,445.0
3114,1685094711900,411.0,384.0
3115,1685094711900,430.0,408.0
3116,1685094711900,434.0,421.0
3117,1685094711931,432.0,460.0
3118,1685094711931,395.0,444.0
3119,1685094711931,438.0,440.0
3120,1685094711962,405.0,495.0
3121,1685094711962,437.0,408.0
3122,1685094711962,409.0,486.0
3123,1685094711962,446.0,409.0
3124,1685094711994,448.0,463.0
3125,1685094711994,453.0,427.0
3126,1685094711994,432.0,380.0
3127,1685094711994,513.0,493.0
3128,1685094712039,416.0,388.0
3129,1685094712039,472.0,415.0
3130,1685094712039,487.0,452.0
3131,1685094712070,425.0,404.0
3132,1685094712070,412.0,401.0
3133,1685094712070,405.0,411.0
3134,1685094712070,427.0,452.0
3135,1685094712106,395.0,465.0
3136,1685094712106,444.0,441.0
3137,1685094712106,405.0,497.0
3138,1685094712137,452.0,428.0
3139,1685094712137,425.0,492.0
3140,1685094712137,460.0,418.0
3141,1685094712137,460.0,434.0
3142,1685094712168,469.0,466.0
3143,1685094712168,419.0,360.0
3144,1685094712168,516.0,470.0
3145,1685094712205,425.0,408.0
3146,1685094712205,414.0,375.0
3147,1685094712205,457.0,421.0
3148,1685094712205,430.0,420.0
3149,1685094712232,397.0,419.0
3150,1685094712232,391.0,415.0
3151,1685094712232,437.0,459.0
3152,1685094712264,406.0,485.0
3153,1685094712264,451.0,442.0
3154,1685094712264,413.0,495.0
3155,1685094712264,461.0,419.0
3156,1685094712295,437.0,479.0
3157,1685094712295,449.0,424.0
3158,1685094712295,450.0,398.0
3159,1685094712295,482.0,494.0
3160,1685094712340,391.0,340.0
3161,1685094712340,490.0,453.0
3162,1685094712340,461.0,444.0
3163,1685094712371,418.0,390.0
3164,1685094712371,428.0,404.0
3165,1685094712371,431.0,422.0
3166,1685094712371,421.0,445.0
3167,1685094712407,393.0,440.0
3168,1685094712407,436.0,450.0
3169,1685094712407,411.0,497.0
3170,1685094712438,444.0,430.0
3171,1685094712438,401.0,482.0
3172,1685094712438,453.0,410.0
3173,1685094712438,446.0,456.0
3174,1685094712469,445.0,434.0
3175,1685094712469,440.0,377.0
3176,1685094712469,504.0,494.0
3177,1685094712502,411.0,376.0
3178,1685094712502,474.0,426.0
3179,1685094712502,496.0,459.0
3180,1685094712502,429.0,413.0
3181,1685094712535,407.0,405.0
3182,1685094712535,408.0,419.0
3183,1685094712535,435.0,454.0
3184,1685094712564,397.0,453.0
3185,1685094712564,443.0,444.0
3186,1685094712564,407.0,495.0
3187,1685094712564,444.0,418.0
3188,1685094712596,422.0,501.0
3189,1685094712596,457.0,414.0
3190,1685094712596,465.0,450.0
3191,1685094712596,469.0,461.0
3192,1685094712640,413.0,356.0
3193,1685094712640,515.0,483.0
3194,1685094712640,423.0,408.0
3195,1685094712671,425.0,388.0
3196,1685094712671,465.0,428.0
3197,1685094712671,424.0,411.0
3198,1685094712671,404.0,421.0
3199,1685094712707,385.0,407.0
3200,1685094712707,431.0,453.0
3201,1685094712707,406.0,491.0
3202,1685094712739,440.0,426.0
3203,1685094712739,410.0,496.0
3204,1685094712739,459.0,422.0
3205,1685094712739,439.0,485.0
3206,1685094712771,452.0,422.0
3207,1685094712771,455.0,405.0
3208,1685094712771,487.0,480.0
3209,1685094712803,397.0,338.0
3210,1685094712803,502.0,465.0
3211,1685094712803,450.0,431.0
3212,1685094712803,406.0,382.0
3213,1685094712834,433.0,412.0
3214,1685094712834,425.0,410.0
3215,1685094712834,418.0,441.0
3216,1685094712869,392.0,436.0
3217,1685094712869,440.0,454.0
3218,1685094712869,408.0,498.0
3219,1685094712869,445.0,429.0
3220,1685094712897,412.0,495.0
3221,1685094712897,453.0,412.0
3222,1685094712897,440.0,461.0
3223,1685094712897,452.0,430.0
3224,1685094712941,435.0,366.0
3225,1685094712941,503.0,494.0
3226,1685094712941,408.0,368.0
3227,1685094712973,479.0,426.0
3228,1685094712973,496.0,464.0
3229,1685094712973,427.0,399.0
3230,1685094712973,419.0,416.0
3231,1685094713008,422.0,415.0
3232,1685094713008,436.0,457.0
3233,1685094713008,390.0,459.0
3234,1685094713039,439.0,445.0
3235,1685094713039,406.0,492.0
3236,1685094713039,451.0,419.0
3237,1685094713039,418.0,491.0
3238,1685094713074,453.0,404.0
3239,1685094713074,454.0,440.0
3240,1685094713074,463.0,466.0
3241,1685094713107,419.0,350.0
3242,1685094713107,516.0,491.0
3243,1685094713107,420.0,405.0
3244,1685094713107,436.0,386.0
3245,1685094713135,469.0,437.0
3246,1685094713135,430.0,408.0
3247,1685094713135,404.0,416.0
3248,1685094713166,399.0,417.0
3249,1685094713166,432.0,448.0
3250,1685094713166,396.0,476.0
3251,1685094713166,443.0,435.0
3252,1685094713201,403.0,501.0
3253,1685094713201,460.0,412.0
3254,1685094713201,430.0,484.0
3255,1685094713201,459.0,417.0
3256,1685094713242,461.0,420.0
3257,1685094713242,482.0,480.0
3258,1685094713242,412.0,343.0
3259,1685094713274,502.0,462.0
3260,1685094713274,447.0,418.0
3261,1685094713274,415.0,381.0
3262,1685094713274,444.0,415.0
3263,1685094713309,436.0,417.0
3264,1685094713309,408.0,431.0
3265,1685094713309,384.0,423.0
3266,1685094713340,434.0,453.0
3267,1685094713340,410.0,496.0
3268,1685094713340,445.0,427.0
3269,1685094713340,411.0,500.0
3270,1685094713372,460.0,417.0
3271,1685094713372,447.0,474.0
3272,1685094713372,445.0,422.0
3273,1685094713403,440.0,375.0
3274,1685094713403,500.0,501.0
3275,1685094713403,402.0,357.0
3276,1685094713403,483.0,431.0
3277,1685094713435,495.0,455.0
3278,1685094713435,413.0,392.0
3279,1685094713435,418.0,411.0
3280,1685094713466,428.0,422.0
3281,1685094713466,433.0,447.0
3282,1685094713466,390.0,461.0
3283,1685094713466,439.0,447.0
3284,1685094713498,405.0,498.0
3285,1685094713498,458.0,436.0
3286,1685094713498,415.0,483.0
3287,1685094713498,453.0,420.0
3288,1685094713542,452.0,451.0
3289,1685094713542,469.0,461.0
3290,1685094713542,418.0,342.0
3291,1685094713574,513.0,495.0
3292,1685094713574,422.0,382.0
3293,1685094713574,443.0,399.0
3294,1685094713574,481.0,442.0
3295,1685094713609,433.0,408.0
3296,1685094713609,405.0,417.0
3297,1685094713609,401.0,416.0
3298,1685094713640,438.0,467.0
3299,1685094713640,401.0,478.0
3300,1685094713640,439.0,438.0
3301,1685094713640,404.0,506.0
3302,1685094713672,453.0,417.0
3303,1685094713672,429.0,479.0
3304,1685094713672,450.0,419.0
3305,1685094713703,460.0,415.0
3306,1685094713703,475.0,480.0
3307,1685094713703,410.0,347.0
3308,1685094713703,515.0,483.0
3309,1685094713735,441.0,414.0
3310,1685094713735,403.0,383.0
3311,1685094713735,455.0,413.0
3312,1685094713767,433.0,419.0
3313,1685094713767,408.0,429.0
3314,1685094713767,387.0,425.0
3315,1685094713767,436.0,456.0
3316,1685094713798,404.0,491.0
3317,1685094713798,440.0,421.0
3318,1685094713798,408.0,505.0
3319,1685094713798,459.0,412.0
3320,1685094713842,445.0,483.0
3321,1685094713842,451.0,434.0
3322,1685094713842,446.0,381.0
3323,1685094713875,502.0,499.0
3324,1685094713875,399.0,360.0
3325,1685094713875,493.0,439.0
3326,1685094713875,489.0,458.0
3327,1685094713909,403.0,386.0
3328,1685094713909,415.0,399.0
3329,1685094713909,417.0,412.0
3330,1685094713940,430.0,449.0
3331,1685094713940,383.0,453.0
3332,1685094713940,433.0,441.0
3333,1685094713940,405.0,496.0
3334,1685094713972,455.0,432.0
3335,1685094713972,419.0,491.0
3336,1685094713972,459.0,406.0
3337,1685094714004,453.0,453.0
3338,1685094714004,462.0,448.0
3339,1685094714004,421.0,355.0
3340,1685094714004,509.0,493.0
3341,1685094714036,412.0,386.0
3342,1685094714036,449.0,402.0
3343,1685094714036,488.0,446.0
3344,1685094714067,427.0,415.0
3345,1685094714067,406.0,415.0
3346,1685094714067,407.0,418.0
3347,1685094714067,432.0,464.0
3348,1685094714102,404.0,476.0
3349,1685094714102,445.0,440.0
3350,1685094714102,407.0,503.0
3351,1685094714102,449.0,414.0
3352,1685094714143,420.0,489.0
3353,1685094714143,448.0,416.0
3354,1685094714143,453.0,417.0
3355,1685094714174,474.0,477.0
3356,1685094714174,403.0,349.0
3357,1685094714174,505.0,474.0
3358,1685094714174,446.0,426.0
3359,1685094714210,409.0,368.0
3360,1685094714210,457.0,431.0
3361,1685094714210,435.0,419.0
3362,1685094714242,412.0,425.0
3363,1685094714242,387.0,433.0
3364,1685094714242,433.0,444.0
3365,1685094714242,407.0,493.0
3366,1685094714273,443.0,437.0
3367,1685094714273,403.0,486.0
3368,1685094714273,456.0,415.0
3369,1685094714305,440.0,478.0
3370,1685094714305,449.0,423.0
3371,1685094714305,448.0,394.0
3372,1685094714305,493.0,488.0
3373,1685094714337,403.0,360.0
3374,1685094714337,494.0,442.0
3375,1685094714337,480.0,450.0
3376,1685094714369,413.0,392.0
3377,1685094714369,421.0,410.0
3378,1685094714369,428.0,414.0
3379,1685094714369,429.0,451.0
3380,1685094714400,382.0,441.0
3381,1685094714400,430.0,439.0
3382,1685094714400,410.0,497.0
3383,1685094714400,453.0,429.0
3384,1685094714444,421.0,493.0
3385,1685094714444,457.0,415.0
3386,1685094714444,458.0,462.0
3387,1685094714475,463.0,451.0
3388,1685094714475,424.0,356.0
3389,1685094714475,508.0,494.0
3390,1685094714475,411.0,376.0
3391,1685094714511,453.0,405.0
3392,1685094714511,489.0,450.0
3393,1685094714511,424.0,408.0
3394,1685094714544,410.0,410.0
3395,1685094714544,404.0,403.0
3396,1685094714544,437.0,465.0
3397,1685094714544,399.0,473.0
3398,1685094714577,448.0,447.0
3399,1685094714577,402.0,501.0
3400,1685094714577,452.0,419.0
3401,1685094714609,425.0,489.0
3402,1685094714609,450.0,421.0
3403,1685094714609,462.0,429.0
3404,1685094714609,471.0,468.0
3405,1685094714638,408.0,341.0
3406,1685094714638,497.0,472.0
3407,1685094714638,432.0,414.0
3408,1685094714670,405.0,376.0
3409,1685094714670,455.0,424.0
3410,1685094714670,432.0,426.0
3411,1685094714670,407.0,427.0
3412,1685094714701,392.0,420.0
3413,1685094714701,443.0,467.0
3414,1685094714701,413.0,489.0
3415,1685094714701,444.0,432.0
3416,1685094714745,408.0,513.0
3417,1685094714745,450.0,407.0
3418,1685094714745,435.0,464.0
3419,1685094714777,441.0,429.0
3420,1685094714777,443.0,390.0
3421,1685094714777,498.0,498.0
3422,1685094714777,395.0,346.0
3423,1685094714811,491.0,449.0
3424,1685094714811,472.0,446.0
3425,1685094714811,403.0,376.0
3426,1685094714843,431.0,416.0
3427,1685094714843,426.0,419.0
3428,1685094714843,426.0,442.0
3429,1685094714843,398.0,457.0
3430,1685094714874,431.0,436.0
3431,1685094714874,407.0,503.0
3432,1685094714874,454.0,419.0
3433,1685094714906,403.0,492.0
3434,1685094714906,454.0,416.0
3435,1685094714906,447.0,457.0
3436,1685094714906,458.0,440.0
3437,1685094714937,426.0,374.0
3438,1685094714937,511.0,491.0
3439,1685094714937,412.0,377.0
3440,1685094714968,461.0,415.0
3441,1685094714968,492.0,462.0
3442,1685094714968,425.0,407.0
3443,1685094714968,404.0,395.0
3444,1685094715000,410.0,415.0
3445,1685094715000,427.0,448.0
3446,1685094715000,387.0,474.0
3447,1685094715000,447.0,444.0
3448,1685094715046,405.0,503.0
3449,1685094715046,458.0,426.0
3450,1685094715046,420.0,481.0
3451,1685094715077,465.0,432.0
3452,1685094715077,464.0,430.0
3453,1685094715077,469.0,460.0
3454,1685094715077,417.0,346.0
3455,1685094715112,517.0,491.0
3456,1685094715112,429.0,406.0
3457,1685094715112,418.0,374.0
3458,1685094715144,465.0,425.0
3459,1685094715144,432.0,415.0
3460,1685094715144,401.0,417.0
3461,1685094715144,389.0,420.0
3462,1685094715175,435.0,450.0
3463,1685094715175,400.0,487.0
3464,1685094715175,447.0,436.0
3465,1685094715208,412.0,506.0
3466,1685094715208,457.0,414.0
3467,1685094715208,434.0,473.0
3468,1685094715208,446.0,422.0
3469,1685094715238,447.0,401.0
3470,1685094715238,493.0,480.0
3471,1685094715238,394.0,345.0
3472,1685094715270,491.0,449.0
3473,1685094715270,463.0,439.0
3474,1685094715270,404.0,378.0
3475,1685094715270,430.0,411.0
3476,1685094715301,433.0,422.0
3477,1685094715301,419.0,439.0
3478,1685094715301,399.0,446.0
3479,1685094715301,447.0,461.0
3480,1685094715346,403.0,484.0
3481,1685094715346,444.0,425.0
3482,1685094715346,410.0,481.0
3483,1685094715377,453.0,410.0
3484,1685094715377,448.0,458.0
3485,1685094715377,452.0,437.0
3486,1685094715377,433.0,371.0
3487,1685094715413,505.0,494.0
3488,1685094715413,399.0,358.0
3489,1685094715413,473.0,424.0
3490,1685094715445,494.0,470.0
3491,1685094715445,419.0,407.0
3492,1685094715445,411.0,419.0
3493,1685094715445,415.0,419.0
3494,1685094715477,431.0,452.0
3495,1685094715477,387.0,459.0
3496,1685094715477,445.0,446.0
3497,1685094715508,407.0,497.0
3498,1685094715508,451.0,413.0
3499,1685094715508,421.0,488.0
3500,1685094715508,453.0,407.0
3501,1685094715539,457.0,443.0
3502,1685094715539,467.0,464.0
3503,1685094715539,413.0,348.0
3504,1685094715571,514.0,487.0
3505,1685094715571,424.0,404.0
3506,1685094715571,423.0,380.0
3507,1685094715571,475.0,433.0
3508,1685094715603,428.0,408.0
3509,1685094715603,401.0,403.0
3510,1685094715603,381.0,416.0
3511,1685094715603,421.0,454.0
3512,1685094715647,400.0,478.0
3513,1685094715647,440.0,439.0
3514,1685094715647,404.0,495.0
3515,1685094715678,465.0,415.0
3516,1685094715678,441.0,487.0
3517,1685094715678,454.0,423.0
3518,1685094715678,457.0,410.0
3519,1685094715713,490.0,485.0
3520,1685094715713,398.0,350.0
3521,1685094715713,499.0,452.0
3522,1685094715745,450.0,432.0
3523,1685094715745,402.0,376.0
3524,1685094715745,428.0,405.0
3525,1685094715745,421.0,413.0
3526,1685094715777,413.0,438.0
3527,1685094715777,395.0,440.0
3528,1685094715777,447.0,463.0
3529,1685094715813,415.0,501.0
3530,1685094715813,450.0,435.0
3531,1685094715813,415.0,495.0
3532,1685094715813,456.0,409.0
3533,1685094715838,446.0,464.0
3534,1685094715838,447.0,423.0
3535,1685094715838,437.0,377.0
3536,1685094715872,502.0,492.0
3537,1685094715872,396.0,359.0
3538,1685094715872,475.0,422.0
3539,1685094715872,516.0,475.0
3540,1685094715902,422.0,400.0
3541,1685094715902,419.0,418.0
3542,1685094715902,423.0,428.0
3543,1685094715902,437.0,455.0
3544,1685094715947,390.0,451.0
3545,1685094715947,442.0,439.0
3546,1685094715947,410.0,494.0
3547,1685094715978,449.0,417.0
3548,1685094715978,414.0,487.0
3549,1685094715978,450.0,414.0
3550,1685094715978,451.0,451.0
3551,1685094716014,461.0,455.0
3552,1685094716014,412.0,360.0
3553,1685094716014,515.0,489.0
3554,1685094716046,430.0,404.0
3555,1685094716046,429.0,390.0
3556,1685094716046,483.0,440.0
3557,1685094716046,430.0,418.0
3558,1685094716077,402.0,402.0
3559,1685094716077,396.0,413.0
3560,1685094716077,433.0,455.0
3561,1685094716109,399.0,470.0
3562,1685094716109,438.0,432.0
3563,1685094716109,401.0,503.0
3564,1685094716109,459.0,416.0
3565,1685094716140,443.0,493.0
3566,1685094716140,451.0,421.0
3567,1685094716140,449.0,416.0
3568,1685094716171,479.0,477.0
3569,1685094716171,408.0,353.0
3570,1685094716171,497.0,456.0
3571,1685094716171,447.0,424.0
3572,1685094716207,399.0,374.0
3573,1685094716207,441.0,413.0
3574,1685094716207,422.0,398.0
3575,1685094716207,414.0,445.0
3576,1685094716248,386.0,412.0
3577,1685094716248,441.0,463.0
3578,1685094716248,418.0,498.0
3579,1685094716279,448.0,423.0
3580,1685094716279,421.0,506.0
3581,1685094716279,463.0,416.0
3582,1685094716279,447.0,468.0
3583,1685094716314,451.0,431.0
3584,1685094716314,440.0,388.0
3585,1685094716314,491.0,480.0
3586,1685094716346,398.0,367.0
3587,1685094716346,475.0,425.0
3588,1685094716346,481.0,456.0
3589,1685094716346,411.0,395.0
3590,1685094716377,419.0,407.0
3591,1685094716377,423.0,416.0
3592,1685094716377,433.0,449.0
3593,1685094716409,405.0,457.0
3594,1685094716409,449.0,444.0
3595,1685094716409,417.0,490.0
3596,1685094716409,450.0,429.0
3597,1685094716440,415.0,488.0
3598,1685094716440,456.0,428.0
3599,1685094716440,453.0,453.0
3600,1685094716472,458.0,453.0
3601,1685094716472,415.0,363.0
3602,1685094716472,504.0,484.0
3603,1685094716472,412.0,385.0
3604,1685094716504,441.0,401.0
3605,1685094716504,484.0,454.0
3606,1685094716504,423.0,413.0
3607,1685094716504,419.0,422.0
3608,1685094716549,407.0,422.0
3609,1685094716549,442.0,468.0
3610,1685094716549,405.0,468.0
3611,1685094716581,443.0,437.0
3612,1685094716581,405.0,492.0
3613,1685094716581,453.0,414.0
3614,1685094716581,427.0,487.0
3615,1685094716615,457.0,423.0
3616,1685094716615,457.0,424.0
3617,1685094716615,475.0,475.0
3618,1685094716647,405.0,349.0
3619,1685094716647,521.0,473.0
3620,1685094716647,446.0,416.0
3621,1685094716647,399.0,373.0
3622,1685094716678,451.0,414.0
3623,1685094716678,431.0,416.0
3624,1685094716678,411.0,417.0
3625,1685094716710,386.0,419.0
3626,1685094716710,435.0,443.0
3627,1685094716710,410.0,490.0
3628,1685094716710,443.0,438.0
3629,1685094716741,414.0,494.0
3630,1685094716741,462.0,424.0
3631,1685094716741,442.0,478.0
3632,1685094716773,450.0,423.0
3633,1685094716773,446.0,394.0
3634,1685094716773,490.0,490.0
3635,1685094716773,399.0,355.0
3636,1685094716804,485.0,434.0
3637,1685094716804,479.0,450.0
3638,1685094716804,400.0,387.0
3639,1685094716804,404.0,397.0
3640,1685094716849,412.0,412.0
3641,1685094716849,426.0,454.0
3642,1685094716849,387.0,442.0
3643,1685094716880,436.0,453.0
3644,1685094716880,412.0,508.0
3645,1685094716880,453.0,426.0
3646,1685094716880,417.0,487.0
3647,1685094716916,453.0,407.0
3648,1685094716916,452.0,448.0
3649,1685094716916,460.0,447.0
3650,1685094716947,423.0,362.0
3651,1685094716947,504.0,483.0
3652,1685094716947,408.0,381.0
3653,1685094716947,443.0,406.0
3654,1685094716978,487.0,444.0
3655,1685094716978,430.0,424.0
3656,1685094716978,406.0,411.0
3657,1685094717010,416.0,422.0
3658,1685094717010,440.0,462.0
3659,1685094717010,407.0,480.0
3660,1685094717010,449.0,444.0
3661,1685094717044,414.0,503.0
3662,1685094717044,447.0,407.0
3663,1685094717044,417.0,484.0
3664,1685094717073,450.0,411.0
3665,1685094717073,448.0,422.0
3666,1685094717073,464.0,467.0
3667,1685094717073,402.0,353.0
3668,1685094717115,502.0,472.0
3669,1685094717115,439.0,416.0
3670,1685094717115,401.0,376.0
3671,1685094717115,463.0,423.0
3672,1685094717150,439.0,424.0
3673,1685094717150,415.0,425.0
3674,1685094717150,391.0,430.0
3675,1685094717183,435.0,451.0
3676,1685094717183,404.0,480.0
3677,1685094717183,441.0,426.0
3678,1685094717183,407.0,499.0
3679,1685094717216,457.0,409.0
3680,1685094717216,439.0,476.0
3681,1685094717216,454.0,427.0
3682,1685094717247,474.0,395.0
3683,1685094717247,501.0,494.0
3684,1685094717247,405.0,364.0
3685,1685094717247,495.0,450.0
3686,1685094717278,471.0,446.0
3687,1685094717278,406.0,386.0
3688,1685094717278,422.0,409.0
3689,1685094717311,417.0,418.0
3690,1685094717311,419.0,439.0
3691,1685094717311,388.0,452.0
3692,1685094717311,433.0,448.0
3693,1685094717342,409.0,496.0
3694,1685094717342,447.0,434.0
3695,1685094717342,423.0,497.0
3696,1685094717373,466.0,422.0
3697,1685094717373,456.0,458.0
3698,1685094717373,462.0,441.0
3699,1685094717373,431.0,367.0
3700,1685094717405,508.0,482.0
3701,1685094717405,406.0,373.0
3702,1685094717405,447.0,405.0
3703,1685094717405,485.0,451.0
3704,1685094717450,419.0,408.0
3705,1685094717450,399.0,394.0
3706,1685094717450,407.0,418.0
3707,1685094717483,439.0,461.0
3708,1685094717483,403.0,466.0
3709,1685094717483,463.0,459.0
3710,1685094717483,415.0,495.0
3711,1685094717517,461.0,418.0
3712,1685094717517,421.0,486.0
3713,1685094717517,446.0,410.0
3714,1685094717549,458.0,444.0
3715,1685094717549,463.0,457.0
3716,1685094717549,407.0,356.0
3717,1685094717549,501.0,468.0
3718,1685094717583,426.0,415.0
3719,1685094717583,413.0,385.0
3720,1685094717583,461.0,429.0
3721,1685094717612,435.0,424.0
3722,1685094717612,417.0,430.0
3723,1685094717612,397.0,427.0
3724,1685094717612,445.0,446.0
3725,1685094717644,404.0,487.0
3726,1685094717644,442.0,422.0
3727,1685094717644,406.0,499.0
3728,1685094717675,452.0,411.0
3729,1685094717675,423.0,470.0
3730,1685094717675,450.0,426.0
3731,1685094717675,447.0,404.0
3732,1685094717717,490.0,484.0
3733,1685094717717,395.0,354.0
3734,1685094717717,498.0,452.0
3735,1685094717717,474.0,446.0
3736,1685094717751,405.0,389.0
3737,1685094717751,433.0,402.0
3738,1685094717751,423.0,419.0
3739,1685094717782,415.0,435.0
3740,1685094717782,392.0,439.0
3741,1685094717782,437.0,448.0
3742,1685094717782,402.0,485.0
3743,1685094717818,447.0,418.0
3744,1685094717818,411.0,498.0
3745,1685094717818,463.0,416.0
3746,1685094717850,454.0,454.0
3747,1685094717850,454.0,442.0
3748,1685094717850,438.0,393.0
3749,1685094717850,497.0,496.0
3750,1685094717881,406.0,381.0
3751,1685094717881,465.0,423.0
3752,1685094717881,496.0,461.0
3753,1685094717912,416.0,396.0
3754,1685094717912,401.0,397.0
3755,1685094717912,403.0,400.0
3756,1685094717912,430.0,457.0
3757,1685094717944,398.0,460.0
3758,1685094717944,458.0,444.0
3759,1685094717944,421.0,502.0
3760,1685094717983,470.0,432.0
3761,1685094717983,427.0,490.0
3762,1685094717983,453.0,420.0
3763,1685094717983,456.0,443.0
3764,1685094718008,465.0,452.0
3765,1685094718008,410.0,355.0
3766,1685094718008,503.0,468.0
3767,1685094718008,419.0,400.0
3768,1685094718052,412.0,377.0
3769,1685094718052,462.0,433.0
3770,1685094718052,428.0,414.0
3771,1685094718084,405.0,402.0
3772,1685094718084,401.0,424.0
3773,1685094718084,440.0,455.0
3774,1685094718084,398.0,474.0
3775,1685094718118,443.0,433.0
3776,1685094718118,403.0,487.0
3777,1685094718118,448.0,406.0
3778,1685094718149,421.0,478.0
3779,1685094718149,438.0,427.0
3780,1685094718149,446.0,415.0
