Sample Number (10000 samples per second),UNIX Timestamp (Milliseconds since 1970-01-01),C1 (),C2 ()
0,1685097184453,508.0,425.0
1,1685097184453,514.0,419.0
2,1685097184453,506.0,416.0
3,1685097184453,509.0,421.0
4,1685097184453,513.0,433.0
5,1685097184453,511.0,442.0
6,1685097184453,495.0,448.0
7,1685097184453,362.0,399.0
8,1685097184453,443.0,432.0
9,1685097184453,456.0,468.0
10,1685097184453,312.0,405.0
11,1685097184453,405.0,405.0
12,1685097184453,382.0,455.0
13,1685097184453,412.0,418.0
14,1685097184453,361.0,438.0
15,1685097184453,488.0,449.0
16,1685097184453,424.0,465.0
17,1685097184453,506.0,424.0
18,1685097184453,453.0,451.0
19,1685097184453,522.0,411.0
20,1685097184453,477.0,427.0
21,1685097184453,495.0,438.0
22,1685097184467,446.0,419.0
23,1685097184467,484.0,449.0
24,1685097184467,360.0,405.0
25,1685097184467,444.0,426.0
26,1685097184467,430.0,458.0
27,1685097184467,319.0,419.0
28,1685097184467,406.0,413.0
29,1685097184467,373.0,461.0
30,1685097184469,417.0,411.0
31,1685097184469,368.0,447.0
32,1685097184469,484.0,421.0
33,1685097184470,432.0,438.0
34,1685097184470,504.0,424.0
35,1685097184470,454.0,455.0
36,1685097184470,515.0,430.0
37,1685097184470,468.0,442.0
38,1685097184470,485.0,426.0
39,1685097184470,449.0,419.0
40,1685097184470,480.0,441.0
41,1685097184470,358.0,399.0
42,1685097184470,446.0,431.0
43,1685097184470,433.0,461.0
44,1685097184470,321.0,406.0
45,1685097184470,410.0,399.0
46,1685097184470,394.0,453.0
47,1685097184470,403.0,415.0
48,1685097184470,376.0,448.0
49,1685097184470,502.0,441.0
50,1685097184470,420.0,462.0
51,1685097184470,513.0,438.0
52,1685097184470,453.0,443.0
53,1685097184470,513.0,431.0
54,1685097184470,459.0,425.0
55,1685097184470,489.0,435.0
56,1685097184470,453.0,419.0
57,1685097184470,493.0,451.0
58,1685097184470,363.0,398.0
59,1685097184470,457.0,436.0
60,1685097184470,429.0,447.0
61,1685097184470,321.0,410.0
62,1685097184470,424.0,421.0
63,1685097184470,381.0,447.0
64,1685097184470,399.0,432.0
65,1685097184470,371.0,436.0
66,1685097184470,490.0,452.0
67,1685097184470,423.0,453.0
68,1685097184470,501.0,435.0
69,1685097184470,454.0,444.0
70,1685097184470,507.0,429.0
71,1685097184470,460.0,443.0
72,1685097184470,492.0,430.0
73,1685097184470,450.0,436.0
74,1685097184470,481.0,445.0
75,1685097184470,366.0,403.0
76,1685097184470,458.0,442.0
77,1685097184470,414.0,454.0
78,1685097184470,315.0,406.0
79,1685097184470,419.0,425.0
80,1685097184470,376.0,455.0
81,1685097184470,388.0,413.0
82,1685097184470,361.0,440.0
83,1685097184470,486.0,446.0
84,1685097184470,420.0,445.0
85,1685097184470,515.0,443.0
86,1685097184470,458.0,459.0
87,1685097184470,518.0,424.0
88,1685097184470,462.0,450.0
89,1685097184470,509.0,436.0
90,1685097184470,459.0,427.0
91,1685097184470,486.0,442.0
92,1685097184470,364.0,408.0
93,1685097184470,474.0,436.0
94,1685097184470,411.0,446.0
95,1685097184470,318.0,394.0
96,1685097184470,418.0,426.0
97,1685097184470,371.0,446.0
98,1685097184470,377.0,420.0
99,1685097184470,380.0,449.0
100,1685097184470,486.0,438.0
101,1685097184470,420.0,461.0
102,1685097184470,513.0,447.0
103,1685097184470,457.0,463.0
104,1685097184470,515.0,428.0
105,1685097184470,464.0,443.0
106,1685097184470,501.0,426.0
107,1685097184470,479.0,446.0
108,1685097184470,474.0,432.0
109,1685097184470,367.0,399.0
110,1685097184470,474.0,446.0
111,1685097184470,410.0,447.0
112,1685097184470,327.0,387.0
113,1685097184470,427.0,440.0
114,1685097184470,386.0,450.0
115,1685097184470,380.0,409.0
116,1685097184470,368.0,445.0
117,1685097184470,476.0,443.0
118,1685097184470,411.0,454.0
119,1685097184470,508.0,448.0
120,1685097184470,460.0,446.0
121,1685097184470,507.0,436.0
122,1685097184470,462.0,438.0
123,1685097184470,497.0,423.0
124,1685097184470,461.0,421.0
125,1685097184470,479.0,443.0
126,1685097184470,372.0,399.0
127,1685097184470,475.0,444.0
128,1685097184470,402.0,438.0
129,1685097184470,346.0,405.0
130,1685097184470,441.0,446.0
131,1685097184470,374.0,433.0
132,1685097184470,380.0,416.0
133,1685097184470,373.0,448.0
134,1685097184470,488.0,462.0
135,1685097184470,397.0,460.0
136,1685097184470,518.0,452.0
137,1685097184484,454.0,453.0
138,1685097184484,498.0,429.0
139,1685097184484,461.0,458.0
140,1685097184484,498.0,427.0
141,1685097184484,467.0,426.0
142,1685097184484,479.0,446.0
143,1685097184484,377.0,388.0
144,1685097184484,493.0,448.0
145,1685097184484,399.0,441.0
146,1685097184484,342.0,407.0
147,1685097184484,441.0,442.0
148,1685097184484,369.0,453.0
149,1685097184484,375.0,413.0
150,1685097184484,367.0,440.0
151,1685097184484,457.0,442.0
152,1685097184484,403.0,429.0
153,1685097184484,519.0,450.0
154,1685097184484,457.0,468.0
155,1685097184484,528.0,431.0
156,1685097184484,468.0,448.0
157,1685097184484,514.0,434.0
158,1685097184484,467.0,428.0
159,1685097184484,484.0,434.0
160,1685097184484,382.0,388.0
161,1685097184484,490.0,437.0
162,1685097184484,369.0,437.0
163,1685097184484,345.0,400.0
164,1685097184484,444.0,439.0
165,1685097184484,358.0,447.0
166,1685097184484,366.0,410.0
167,1685097184484,378.0,448.0
168,1685097184484,487.0,447.0
169,1685097184484,390.0,439.0
170,1685097184484,545.0,468.0
171,1685097184484,453.0,467.0
172,1685097184484,507.0,421.0
173,1685097184484,470.0,458.0
174,1685097184484,497.0,419.0
175,1685097184484,465.0,435.0
176,1685097184484,474.0,438.0
177,1685097184484,380.0,394.0
178,1685097184484,504.0,444.0
179,1685097184484,377.0,445.0
180,1685097184484,374.0,420.0
181,1685097184484,457.0,446.0
182,1685097184484,366.0,442.0
183,1685097184484,381.0,414.0
184,1685097184484,375.0,443.0
185,1685097184484,481.0,454.0
186,1685097184484,383.0,440.0
187,1685097184484,514.0,440.0
188,1685097184484,444.0,456.0
189,1685097184484,501.0,419.0
190,1685097184484,470.0,451.0
191,1685097184484,494.0,407.0
192,1685097184484,464.0,437.0
193,1685097184484,495.0,437.0
194,1685097184484,389.0,396.0
195,1685097184484,503.0,458.0
196,1685097184484,382.0,428.0
197,1685097184484,376.0,411.0
198,1685097184484,450.0,444.0
199,1685097184484,356.0,443.0
200,1685097184484,363.0,413.0
201,1685097184484,372.0,435.0
202,1685097184484,464.0,449.0
203,1685097184484,381.0,442.0
204,1685097184484,511.0,452.0
205,1685097184484,451.0,455.0
206,1685097184484,503.0,436.0
207,1685097184484,473.0,450.0
208,1685097184484,519.0,438.0
209,1685097184484,464.0,436.0
210,1685097184484,487.0,407.0
211,1685097184484,404.0,416.0
212,1685097184484,495.0,441.0
213,1685097184484,366.0,422.0
214,1685097184484,370.0,414.0
215,1685097184484,456.0,443.0
216,1685097184484,354.0,438.0
217,1685097184484,370.0,396.0
218,1685097184484,379.0,450.0
219,1685097184484,450.0,440.0
220,1685097184484,383.0,454.0
221,1685097184484,519.0,448.0
222,1685097184484,446.0,460.0
223,1685097184484,520.0,436.0
224,1685097184484,464.0,450.0
225,1685097184484,503.0,425.0
226,1685097184484,468.0,433.0
227,1685097184484,477.0,430.0
228,1685097184484,400.0,404.0
229,1685097184484,495.0,456.0
230,1685097184484,368.0,411.0
231,1685097184484,385.0,422.0
232,1685097184484,467.0,449.0
233,1685097184484,350.0,437.0
234,1685097184484,383.0,408.0
235,1685097184484,387.0,454.0
236,1685097184484,451.0,432.0
237,1685097184484,377.0,446.0
238,1685097184484,507.0,437.0
239,1685097184484,445.0,457.0
240,1685097184484,512.0,433.0
241,1685097184484,454.0,436.0
242,1685097184484,513.0,427.0
243,1685097184484,474.0,438.0
244,1685097184484,486.0,428.0
245,1685097184484,417.0,406.0
246,1685097184484,506.0,461.0
247,1685097184484,376.0,410.0
248,1685097184484,394.0,411.0
249,1685097184484,476.0,470.0
250,1685097184484,335.0,434.0
251,1685097184484,371.0,408.0
252,1685097184484,380.0,452.0
253,1685097184484,451.0,446.0
254,1685097184484,365.0,446.0
255,1685097184484,505.0,456.0
256,1685097184484,433.0,472.0
257,1685097184484,522.0,425.0
258,1685097184484,462.0,463.0
259,1685097184484,510.0,421.0
260,1685097184484,473.0,427.0
261,1685097184484,486.0,433.0
262,1685097184484,409.0,376.0
263,1685097184484,502.0,467.0
264,1685097184484,352.0,413.0
265,1685097184484,397.0,423.0
266,1685097184484,465.0,471.0
267,1685097184484,333.0,437.0
268,1685097184484,382.0,404.0
269,1685097184484,384.0,457.0
270,1685097184484,449.0,452.0
271,1685097184484,369.0,430.0
272,1685097184484,516.0,440.0
273,1685097184484,437.0,461.0
274,1685097184484,507.0,429.0
275,1685097184484,469.0,452.0
276,1685097184484,509.0,415.0
277,1685097184484,464.0,430.0
278,1685097184484,480.0,431.0
279,1685097184500,412.0,404.0
280,1685097184500,498.0,452.0
281,1685097184500,355.0,405.0
282,1685097184500,403.0,409.0
283,1685097184500,462.0,465.0
284,1685097184500,333.0,413.0
285,1685097184500,395.0,417.0
286,1685097184500,381.0,454.0
287,1685097184500,433.0,436.0
288,1685097184500,366.0,445.0
289,1685097184500,514.0,440.0
290,1685097184500,428.0,457.0
291,1685097184500,516.0,415.0
292,1685097184500,461.0,457.0
293,1685097184500,507.0,418.0
294,1685097184500,467.0,448.0
295,1685097184500,488.0,416.0
296,1685097184500,430.0,409.0
297,1685097184500,502.0,457.0
298,1685097184500,361.0,423.0
299,1685097184500,421.0,422.0
300,1685097184500,464.0,470.0
301,1685097184500,323.0,424.0
302,1685097184500,382.0,405.0
303,1685097184500,387.0,463.0
304,1685097184500,434.0,438.0
305,1685097184500,361.0,428.0
306,1685097184500,501.0,447.0
307,1685097184500,427.0,448.0
308,1685097184500,513.0,435.0
309,1685097184500,468.0,448.0
310,1685097184500,517.0,433.0
311,1685097184500,476.0,440.0
312,1685097184500,488.0,424.0
313,1685097184500,431.0,406.0
314,1685097184500,511.0,456.0
315,1685097184500,355.0,396.0
316,1685097184500,422.0,432.0
317,1685097184500,446.0,472.0
318,1685097184500,320.0,419.0
319,1685097184500,391.0,416.0
320,1685097184500,389.0,456.0
321,1685097184500,423.0,430.0
322,1685097184500,362.0,436.0
323,1685097184500,500.0,444.0
324,1685097184500,422.0,457.0
325,1685097184500,511.0,432.0
326,1685097184500,457.0,451.0
327,1685097184500,518.0,433.0
328,1685097184500,468.0,430.0
329,1685097184500,496.0,430.0
330,1685097184500,434.0,418.0
331,1685097184500,493.0,450.0
332,1685097184500,348.0,398.0
333,1685097184500,441.0,437.0
334,1685097184500,441.0,454.0
335,1685097184500,330.0,415.0
336,1685097184500,392.0,411.0
337,1685097184500,382.0,462.0
338,1685097184500,416.0,431.0
339,1685097184500,360.0,420.0
340,1685097184500,505.0,463.0
341,1685097184500,416.0,457.0
342,1685097184500,503.0,428.0
343,1685097184500,458.0,447.0
344,1685097184500,516.0,427.0
345,1685097184500,468.0,426.0
346,1685097184500,484.0,423.0
347,1685097184500,439.0,411.0
348,1685097184500,502.0,448.0
349,1685097184500,350.0,400.0
350,1685097184500,457.0,426.0
351,1685097184500,437.0,454.0
352,1685097184500,319.0,418.0
353,1685097184500,392.0,413.0
354,1685097184500,375.0,454.0
355,1685097184500,410.0,438.0
356,1685097184500,367.0,432.0
357,1685097184500,499.0,446.0
358,1685097184500,420.0,448.0
359,1685097184500,507.0,438.0
360,1685097184500,453.0,448.0
361,1685097184500,518.0,431.0
362,1685097184500,473.0,445.0
363,1685097184500,488.0,417.0
364,1685097184500,382.0,378.0
365,1685097184500,521.0,476.0
366,1685097184500,361.0,396.0
367,1685097184500,458.0,440.0
368,1685097184500,432.0,466.0
369,1685097184500,324.0,411.0
370,1685097184500,394.0,413.0
371,1685097184500,391.0,459.0
372,1685097184500,396.0,420.0
373,1685097184500,358.0,441.0
374,1685097184500,496.0,448.0
375,1685097184500,415.0,458.0
376,1685097184500,508.0,427.0
377,1685097184500,452.0,447.0
378,1685097184500,510.0,422.0
379,1685097184500,477.0,423.0
380,1685097184500,501.0,437.0
381,1685097184500,454.0,424.0
382,1685097184500,506.0,447.0
383,1685097184500,352.0,389.0
384,1685097184500,464.0,443.0
385,1685097184500,414.0,447.0
386,1685097184500,313.0,399.0
387,1685097184500,406.0,437.0
388,1685097184500,382.0,458.0
389,1685097184500,395.0,422.0
390,1685097184500,354.0,432.0
391,1685097184500,492.0,451.0
392,1685097184500,419.0,458.0
393,1685097184500,512.0,432.0
394,1685097184500,450.0,455.0
395,1685097184500,515.0,411.0
396,1685097184500,464.0,449.0
397,1685097184500,490.0,445.0
398,1685097184500,458.0,418.0
399,1685097184500,491.0,437.0
400,1685097184500,356.0,390.0
401,1685097184500,470.0,443.0
402,1685097184500,421.0,451.0
403,1685097184500,321.0,403.0
404,1685097184500,418.0,421.0
405,1685097184500,386.0,456.0
406,1685097184500,386.0,404.0
407,1685097184500,365.0,455.0
408,1685097184500,486.0,448.0
409,1685097184500,406.0,457.0
410,1685097184500,506.0,428.0
411,1685097184500,446.0,459.0
412,1685097184500,518.0,422.0
413,1685097184500,470.0,442.0
414,1685097184500,494.0,431.0
415,1685097184500,469.0,419.0
416,1685097184509,486.0,437.0
417,1685097184509,363.0,404.0
418,1685097184509,475.0,438.0
419,1685097184509,415.0,448.0
420,1685097184509,322.0,408.0
421,1685097184509,429.0,429.0
422,1685097184509,370.0,449.0
423,1685097184509,383.0,416.0
424,1685097184509,356.0,442.0
425,1685097184509,485.0,448.0
426,1685097184509,403.0,458.0
427,1685097184509,517.0,437.0
428,1685097184509,454.0,458.0
429,1685097184509,526.0,412.0
430,1685097184509,483.0,458.0
431,1685097184509,496.0,411.0
432,1685097184509,463.0,429.0
433,1685097184509,490.0,439.0
434,1685097184509,362.0,392.0
435,1685097184509,475.0,444.0
436,1685097184509,401.0,438.0
437,1685097184509,314.0,388.0
438,1685097184509,418.0,429.0
439,1685097184509,380.0,460.0
440,1685097184509,387.0,415.0
441,1685097184509,362.0,443.0
442,1685097184509,496.0,451.0
443,1685097184509,411.0,461.0
444,1685097184509,519.0,447.0
445,1685097184509,455.0,451.0
446,1685097184509,519.0,428.0
447,1685097184509,468.0,451.0
448,1685097184509,492.0,418.0
449,1685097184509,460.0,434.0
450,1685097184509,478.0,453.0
451,1685097184509,363.0,378.0
452,1685097184509,480.0,453.0
453,1685097184509,402.0,436.0
454,1685097184509,334.0,400.0
455,1685097184509,432.0,439.0
456,1685097184509,385.0,449.0
457,1685097184509,384.0,417.0
458,1685097184509,364.0,437.0
459,1685097184509,492.0,458.0
460,1685097184509,397.0,449.0
461,1685097184509,511.0,454.0
462,1685097184509,447.0,459.0
463,1685097184509,499.0,419.0
464,1685097184509,455.0,448.0
465,1685097184509,499.0,420.0
466,1685097184509,461.0,426.0
467,1685097184509,494.0,431.0
468,1685097184509,372.0,392.0
469,1685097184509,502.0,470.0
470,1685097184509,400.0,427.0
471,1685097184509,354.0,412.0
472,1685097184509,435.0,434.0
473,1685097184509,375.0,451.0
474,1685097184509,374.0,408.0
475,1685097184509,361.0,444.0
476,1685097184509,467.0,448.0
477,1685097184509,385.0,433.0
478,1685097184509,512.0,446.0
479,1685097184509,443.0,444.0
480,1685097184509,509.0,439.0
481,1685097184509,478.0,451.0
482,1685097184509,506.0,423.0
483,1685097184509,482.0,443.0
484,1685097184509,491.0,433.0
485,1685097184509,380.0,401.0
486,1685097184509,495.0,446.0
487,1685097184509,384.0,443.0
488,1685097184509,342.0,405.0
489,1685097184509,433.0,444.0
490,1685097184509,350.0,443.0
491,1685097184509,369.0,415.0
492,1685097184509,371.0,439.0
493,1685097184509,477.0,453.0
494,1685097184509,388.0,439.0
495,1685097184509,516.0,459.0
496,1685097184509,454.0,460.0
497,1685097184509,512.0,422.0
498,1685097184509,473.0,447.0
499,1685097184509,507.0,419.0
500,1685097184509,467.0,433.0
501,1685097184509,482.0,427.0
502,1685097184509,382.0,404.0
503,1685097184509,490.0,455.0
504,1685097184509,380.0,421.0
505,1685097184509,364.0,409.0
506,1685097184509,450.0,447.0
507,1685097184509,365.0,438.0
508,1685097184509,373.0,402.0
509,1685097184509,378.0,452.0
510,1685097184509,478.0,457.0
511,1685097184509,395.0,447.0
512,1685097184509,520.0,450.0
513,1685097184509,450.0,460.0
514,1685097184509,506.0,420.0
515,1685097184509,458.0,445.0
516,1685097184509,511.0,422.0
517,1685097184509,456.0,430.0
518,1685097184509,486.0,431.0
519,1685097184509,396.0,405.0
520,1685097184509,504.0,455.0
521,1685097184509,380.0,424.0
522,1685097184509,374.0,411.0
523,1685097184509,461.0,448.0
524,1685097184509,373.0,448.0
525,1685097184509,374.0,419.0
526,1685097184509,386.0,445.0
527,1685097184509,457.0,454.0
528,1685097184509,371.0,448.0
529,1685097184509,511.0,456.0
530,1685097184509,446.0,458.0
531,1685097184509,503.0,423.0
532,1685097184509,461.0,435.0
533,1685097184509,507.0,414.0
534,1685097184509,481.0,423.0
535,1685097184509,485.0,443.0
536,1685097184509,395.0,395.0
537,1685097184509,509.0,457.0
538,1685097184509,370.0,421.0
539,1685097184509,377.0,401.0
540,1685097184509,452.0,460.0
541,1685097184509,364.0,442.0
542,1685097184509,363.0,405.0
543,1685097184509,371.0,439.0
544,1685097184509,448.0,443.0
545,1685097184509,385.0,442.0
546,1685097184509,510.0,437.0
547,1685097184509,450.0,471.0
548,1685097184509,513.0,430.0
549,1685097184509,474.0,468.0
550,1685097184509,519.0,423.0
551,1685097184509,472.0,431.0
552,1685097184509,479.0,432.0
553,1685097184509,402.0,396.0
554,1685097184509,496.0,468.0
555,1685097184509,362.0,417.0
556,1685097184509,375.0,404.0
557,1685097184509,463.0,459.0
558,1685097184509,352.0,440.0
559,1685097184509,364.0,410.0
560,1685097184509,388.0,452.0
561,1685097184509,449.0,450.0
562,1685097184509,392.0,436.0
563,1685097184509,507.0,447.0
564,1685097184509,458.0,454.0
565,1685097184509,510.0,432.0
566,1685097184509,463.0,438.0
567,1685097184509,507.0,418.0
568,1685097184509,461.0,428.0
569,1685097184509,477.0,423.0
570,1685097184509,407.0,399.0
571,1685097184509,500.0,468.0
572,1685097184509,360.0,414.0
573,1685097184509,386.0,414.0
574,1685097184509,473.0,450.0
575,1685097184509,357.0,433.0
576,1685097184509,377.0,407.0
577,1685097184509,388.0,452.0
578,1685097184509,448.0,448.0
579,1685097184509,379.0,435.0
580,1685097184509,512.0,457.0
581,1685097184509,439.0,454.0
582,1685097184509,500.0,432.0
583,1685097184509,451.0,454.0
584,1685097184509,504.0,408.0
585,1685097184509,462.0,425.0
586,1685097184509,484.0,435.0
587,1685097184509,418.0,414.0
588,1685097184509,511.0,463.0
589,1685097184509,367.0,411.0
590,1685097184509,404.0,407.0
591,1685097184516,469.0,475.0
592,1685097184516,342.0,423.0
593,1685097184516,383.0,409.0
594,1685097184516,373.0,446.0
595,1685097184516,438.0,449.0
596,1685097184516,379.0,442.0
597,1685097184516,493.0,454.0
598,1685097184516,443.0,472.0
599,1685097184516,509.0,414.0
600,1685097184516,461.0,460.0
601,1685097184516,504.0,417.0
602,1685097184516,488.0,449.0
603,1685097184516,474.0,427.0
604,1685097184516,404.0,396.0
605,1685097184516,507.0,449.0
606,1685097184516,359.0,406.0
607,1685097184516,412.0,422.0
608,1685097184516,458.0,453.0
609,1685097184516,338.0,422.0
610,1685097184516,369.0,410.0
611,1685097184516,376.0,452.0
612,1685097184516,426.0,437.0
613,1685097184516,370.0,434.0
614,1685097184516,502.0,454.0
615,1685097184516,436.0,452.0
616,1685097184516,525.0,438.0
617,1685097184516,465.0,443.0
618,1685097184516,521.0,431.0
619,1685097184516,478.0,441.0
620,1685097184516,480.0,437.0
621,1685097184516,423.0,398.0
622,1685097184516,499.0,453.0
623,1685097184516,344.0,407.0
624,1685097184516,420.0,419.0
625,1685097184516,465.0,466.0
626,1685097184516,329.0,435.0
627,1685097184516,377.0,409.0
628,1685097184516,385.0,458.0
629,1685097184516,441.0,441.0
630,1685097184516,373.0,439.0
631,1685097184516,507.0,458.0
632,1685097184516,424.0,450.0
633,1685097184516,500.0,434.0
634,1685097184516,456.0,464.0
635,1685097184516,509.0,421.0
636,1685097184516,470.0,446.0
637,1685097184516,473.0,423.0
638,1685097184516,432.0,414.0
639,1685097184516,510.0,459.0
640,1685097184516,366.0,400.0
641,1685097184516,425.0,422.0
642,1685097184516,454.0,465.0
643,1685097184516,343.0,417.0
644,1685097184516,392.0,408.0
645,1685097184516,394.0,448.0
646,1685097184516,423.0,444.0
647,1685097184516,354.0,438.0
648,1685097184516,507.0,445.0
649,1685097184516,421.0,450.0
650,1685097184516,501.0,442.0
651,1685097184516,454.0,436.0
652,1685097184516,502.0,432.0
653,1685097184516,472.0,438.0
654,1685097184516,491.0,431.0
655,1685097184516,434.0,416.0
656,1685097184516,515.0,465.0
657,1685097184516,350.0,390.0
658,1685097184516,435.0,438.0
659,1685097184516,446.0,468.0
660,1685097184516,330.0,424.0
661,1685097184516,383.0,417.0
662,1685097184516,379.0,455.0
663,1685097184516,421.0,435.0
664,1685097184516,351.0,437.0
665,1685097184516,504.0,455.0
666,1685097184516,422.0,450.0
667,1685097184516,509.0,429.0
668,1685097184516,464.0,463.0
669,1685097184516,522.0,423.0
670,1685097184516,487.0,456.0
671,1685097184516,493.0,426.0
672,1685097184516,432.0,417.0
673,1685097184516,499.0,445.0
674,1685097184516,345.0,395.0
675,1685097184516,437.0,430.0
676,1685097184516,439.0,464.0
677,1685097184516,317.0,418.0
678,1685097184516,385.0,399.0
679,1685097184516,386.0,461.0
680,1685097184516,413.0,414.0
681,1685097184516,368.0,452.0
682,1685097184516,504.0,448.0
683,1685097184516,427.0,456.0
684,1685097184516,519.0,431.0
685,1685097184516,464.0,450.0
686,1685097184516,518.0,429.0
687,1685097184516,467.0,438.0
688,1685097184516,482.0,413.0
689,1685097184516,428.0,405.0
690,1685097184516,492.0,445.0
691,1685097184516,341.0,397.0
692,1685097184516,450.0,428.0
693,1685097184516,461.0,471.0
694,1685097184516,321.0,403.0
695,1685097184516,401.0,414.0
696,1685097184516,386.0,458.0
697,1685097184516,417.0,430.0
698,1685097184516,376.0,445.0
699,1685097184516,511.0,471.0
700,1685097184516,411.0,453.0
701,1685097184516,500.0,429.0
702,1685097184516,456.0,444.0
703,1685097184516,509.0,426.0
704,1685097184516,461.0,438.0
705,1685097184516,482.0,419.0
706,1685097184516,442.0,415.0
707,1685097184516,499.0,457.0
708,1685097184516,353.0,398.0
709,1685097184516,462.0,440.0
710,1685097184516,439.0,455.0
711,1685097184516,311.0,406.0
712,1685097184516,404.0,406.0
713,1685097184516,380.0,462.0
714,1685097184516,400.0,425.0
715,1685097184516,353.0,434.0
716,1685097184516,498.0,448.0
717,1685097184516,408.0,459.0
718,1685097184516,507.0,433.0
719,1685097184516,460.0,445.0
720,1685097184516,522.0,428.0
721,1685097184516,474.0,457.0
722,1685097184516,495.0,424.0
723,1685097184516,456.0,426.0
724,1685097184516,485.0,442.0
725,1685097184516,349.0,388.0
726,1685097184516,458.0,431.0
727,1685097184516,417.0,448.0
728,1685097184516,316.0,412.0
729,1685097184516,400.0,414.0
730,1685097184516,379.0,462.0
731,1685097184516,385.0,426.0
732,1685097184516,357.0,435.0
733,1685097184516,502.0,448.0
734,1685097184516,416.0,452.0
735,1685097184516,519.0,430.0
736,1685097184516,459.0,445.0
737,1685097184516,521.0,431.0
738,1685097184516,485.0,445.0
739,1685097184516,485.0,419.0
740,1685097184516,456.0,418.0
741,1685097184516,478.0,435.0
742,1685097184516,348.0,386.0
743,1685097184516,469.0,435.0
744,1685097184516,416.0,450.0
745,1685097184516,313.0,401.0
746,1685097184516,419.0,430.0
747,1685097184516,384.0,445.0
748,1685097184516,400.0,410.0
749,1685097184516,365.0,446.0
750,1685097184516,481.0,464.0
751,1685097184516,418.0,464.0
752,1685097184516,506.0,441.0
753,1685097184516,450.0,457.0
754,1685097184516,511.0,426.0
755,1685097184516,471.0,446.0
756,1685097184516,491.0,416.0
757,1685097184516,460.0,424.0
758,1685097184516,484.0,425.0
759,1685097184516,363.0,393.0
760,1685097184516,475.0,447.0
761,1685097184516,421.0,440.0
762,1685097184516,321.0,399.0
763,1685097184516,429.0,443.0
764,1685097184516,377.0,441.0
765,1685097184516,394.0,426.0
766,1685097184516,369.0,444.0
767,1685097184516,486.0,448.0
768,1685097184516,411.0,454.0
769,1685097184516,510.0,441.0
770,1685097184516,448.0,448.0
771,1685097184516,507.0,421.0
772,1685097184516,464.0,446.0
773,1685097184516,499.0,413.0
774,1685097184516,456.0,443.0
775,1685097184516,475.0,434.0
776,1685097184516,361.0,398.0
777,1685097184516,486.0,452.0
778,1685097184516,416.0,438.0
779,1685097184516,332.0,410.0
780,1685097184516,423.0,434.0
781,1685097184516,376.0,444.0
782,1685097184516,383.0,409.0
783,1685097184516,364.0,435.0
784,1685097184516,483.0,453.0
785,1685097184516,403.0,452.0
786,1685097184516,510.0,425.0
787,1685097184516,448.0,465.0
788,1685097184516,505.0,431.0
789,1685097184516,472.0,441.0
790,1685097184516,498.0,424.0
791,1685097184516,464.0,433.0
792,1685097184516,487.0,443.0
793,1685097184516,364.0,389.0
794,1685097184516,484.0,454.0
795,1685097184516,407.0,439.0
796,1685097184516,328.0,406.0
797,1685097184516,434.0,419.0
798,1685097184516,373.0,460.0
799,1685097184516,370.0,409.0
800,1685097184516,358.0,442.0
801,1685097184516,479.0,448.0
802,1685097184516,418.0,458.0
803,1685097184516,520.0,439.0
804,1685097184516,457.0,460.0
805,1685097184516,517.0,445.0
806,1685097184516,469.0,437.0
807,1685097184516,502.0,429.0
808,1685097184516,462.0,430.0
809,1685097184516,478.0,435.0
810,1685097184516,361.0,394.0
811,1685097184516,486.0,450.0
812,1685097184516,392.0,435.0
813,1685097184516,332.0,404.0
814,1685097184516,441.0,425.0
815,1685097184516,370.0,447.0
816,1685097184516,379.0,416.0
817,1685097184516,379.0,443.0
818,1685097184516,477.0,454.0
819,1685097184516,398.0,451.0
820,1685097184516,529.0,453.0
821,1685097184516,453.0,452.0
822,1685097184516,509.0,426.0
823,1685097184516,467.0,449.0
824,1685097184516,494.0,406.0
825,1685097184516,459.0,432.0
826,1685097184516,471.0,437.0
827,1685097184516,366.0,393.0
828,1685097184516,490.0,462.0
829,1685097184516,392.0,430.0
830,1685097184516,340.0,402.0
831,1685097184516,449.0,449.0
832,1685097184516,370.0,448.0
833,1685097184516,382.0,415.0
834,1685097184516,369.0,439.0
835,1685097184516,480.0,449.0
836,1685097184516,390.0,446.0
837,1685097184516,514.0,444.0
838,1685097184516,442.0,452.0
839,1685097184516,504.0,430.0
840,1685097184516,462.0,440.0
841,1685097184516,503.0,436.0
842,1685097184516,456.0,435.0
843,1685097184516,489.0,437.0
844,1685097184516,382.0,407.0
845,1685097184516,495.0,451.0
846,1685097184516,387.0,420.0
847,1685097184516,359.0,402.0
848,1685097184516,455.0,445.0
849,1685097184516,361.0,450.0
850,1685097184516,368.0,400.0
851,1685097184516,371.0,438.0
852,1685097184516,475.0,446.0
853,1685097184516,393.0,447.0
854,1685097184516,512.0,453.0
855,1685097184516,448.0,464.0
856,1685097184516,510.0,421.0
857,1685097184516,474.0,444.0
858,1685097184516,519.0,427.0
859,1685097184516,468.0,429.0
860,1685097184516,487.0,424.0
861,1685097184516,389.0,405.0
862,1685097184516,492.0,452.0
863,1685097184516,376.0,427.0
864,1685097184516,357.0,409.0
865,1685097184516,444.0,445.0
866,1685097184516,361.0,447.0
867,1685097184516,367.0,417.0
868,1685097184516,367.0,450.0
869,1685097184516,460.0,447.0
870,1685097184516,403.0,447.0
871,1685097184516,518.0,450.0
872,1685097184516,453.0,450.0
873,1685097184516,504.0,431.0
874,1685097184516,467.0,453.0
875,1685097184516,511.0,422.0
876,1685097184516,468.0,435.0
877,1685097184516,481.0,435.0
878,1685097184516,390.0,388.0
879,1685097184516,498.0,453.0
880,1685097184516,364.0,423.0
881,1685097184516,367.0,398.0
882,1685097184516,458.0,462.0
883,1685097184516,347.0,429.0
884,1685097184516,387.0,416.0
885,1685097184516,374.0,449.0
886,1685097184516,468.0,441.0
887,1685097184516,386.0,464.0
888,1685097184516,508.0,455.0
889,1685097184516,452.0,454.0
890,1685097184516,504.0,423.0
891,1685097184516,460.0,450.0
892,1685097184516,507.0,424.0
893,1685097184516,462.0,437.0
894,1685097184516,474.0,427.0
895,1685097184516,400.0,409.0
896,1685097184516,496.0,460.0
897,1685097184516,378.0,422.0
898,1685097184516,380.0,413.0
899,1685097184516,468.0,454.0
900,1685097184516,358.0,439.0
901,1685097184516,370.0,414.0
902,1685097184516,379.0,457.0
903,1685097184516,454.0,433.0
904,1685097184516,379.0,449.0
905,1685097184516,509.0,441.0
906,1685097184516,446.0,459.0
907,1685097184516,504.0,426.0
908,1685097184516,462.0,458.0
909,1685097184516,507.0,419.0
910,1685097184516,469.0,431.0
911,1685097184516,482.0,442.0
912,1685097184516,403.0,386.0
913,1685097184516,497.0,454.0
914,1685097184516,370.0,420.0
915,1685097184516,389.0,425.0
916,1685097184516,466.0,472.0
917,1685097184516,346.0,426.0
918,1685097184516,370.0,409.0
919,1685097184516,379.0,451.0
920,1685097184516,457.0,449.0
921,1685097184516,374.0,455.0
922,1685097184516,502.0,436.0
923,1685097184516,448.0,464.0
924,1685097184516,505.0,432.0
925,1685097184516,464.0,445.0
926,1685097184516,512.0,419.0
927,1685097184516,477.0,427.0
928,1685097184516,488.0,433.0
929,1685097184516,415.0,402.0
930,1685097184516,500.0,451.0
931,1685097184516,362.0,408.0
932,1685097184516,397.0,425.0
933,1685097184516,462.0,466.0
934,1685097184516,340.0,433.0
935,1685097184516,373.0,415.0
936,1685097184516,365.0,445.0
937,1685097184516,442.0,438.0
938,1685097184516,388.0,444.0
939,1685097184516,504.0,455.0
940,1685097184516,442.0,461.0
941,1685097184516,516.0,437.0
942,1685097184516,463.0,444.0
943,1685097184516,508.0,423.0
944,1685097184516,475.0,447.0
945,1685097184516,472.0,431.0
946,1685097184516,430.0,393.0
947,1685097184516,500.0,455.0
948,1685097184516,354.0,405.0
949,1685097184516,402.0,429.0
950,1685097184516,453.0,452.0
951,1685097184516,338.0,447.0
952,1685097184516,394.0,407.0
953,1685097184516,379.0,458.0
954,1685097184516,443.0,446.0
955,1685097184516,381.0,446.0
956,1685097184516,515.0,461.0
957,1685097184516,443.0,455.0
958,1685097184516,506.0,437.0
959,1685097184516,465.0,444.0
960,1685097184516,500.0,417.0
961,1685097184516,463.0,432.0
962,1685097184516,478.0,433.0
963,1685097184516,414.0,403.0
964,1685097184516,506.0,439.0
965,1685097184516,361.0,420.0
966,1685097184516,418.0,428.0
967,1685097184516,470.0,449.0
968,1685097184516,342.0,427.0
969,1685097184516,386.0,414.0
970,1685097184516,391.0,455.0
971,1685097184516,430.0,443.0
972,1685097184516,369.0,443.0
973,1685097184516,499.0,449.0
974,1685097184516,434.0,447.0
975,1685097184516,510.0,429.0
976,1685097184516,455.0,449.0
977,1685097184516,511.0,424.0
978,1685097184516,469.0,433.0
979,1685097184516,485.0,428.0
980,1685097184516,434.0,411.0
981,1685097184516,507.0,464.0
982,1685097184516,367.0,405.0
983,1685097184516,439.0,424.0
984,1685097184516,456.0,457.0
985,1685097184516,331.0,420.0
986,1685097184516,374.0,409.0
987,1685097184516,381.0,445.0
988,1685097184516,420.0,438.0
989,1685097184516,367.0,442.0
990,1685097184516,495.0,452.0
991,1685097184516,437.0,446.0
992,1685097184516,510.0,431.0
993,1685097184516,464.0,454.0
994,1685097184516,527.0,421.0
995,1685097184516,471.0,440.0
996,1685097184516,491.0,434.0
997,1685097184516,423.0,406.0
998,1685097184516,505.0,453.0
999,1685097184516,337.0,410.0
1000,1685097184516,423.0,419.0
1001,1685097184516,444.0,456.0
1002,1685097184516,322.0,426.0
1003,1685097184516,386.0,408.0
1004,1685097184516,383.0,450.0
1005,1685097184516,433.0,434.0
1006,1685097184516,375.0,436.0
1007,1685097184516,512.0,456.0
1008,1685097184516,436.0,452.0
1009,1685097184516,512.0,426.0
1010,1685097184516,458.0,455.0
1011,1685097184516,512.0,416.0
1012,1685097184516,463.0,449.0
1013,1685097184516,479.0,424.0
1014,1685097184516,424.0,404.0
1015,1685097184516,497.0,448.0
1016,1685097184516,345.0,396.0
1017,1685097184516,442.0,434.0
1018,1685097184516,459.0,466.0
1019,1685097184516,324.0,422.0
1020,1685097184516,400.0,402.0
1021,1685097184516,390.0,459.0
1022,1685097184516,428.0,432.0
1023,1685097184516,363.0,444.0
1024,1685097184516,509.0,453.0
1025,1685097184516,420.0,449.0
1026,1685097184516,499.0,442.0
1027,1685097184516,452.0,450.0
1028,1685097184516,505.0,425.0
1029,1685097184516,470.0,448.0
1030,1685097184516,485.0,419.0
1031,1685097184516,433.0,423.0
1032,1685097184516,515.0,456.0
1033,1685097184516,353.0,394.0
1034,1685097184516,445.0,448.0
1035,1685097184516,443.0,452.0
1036,1685097184516,323.0,417.0
1037,1685097184516,401.0,419.0
1038,1685097184516,377.0,461.0
1039,1685097184516,412.0,439.0
1040,1685097184516,351.0,429.0
1041,1685097184516,491.0,443.0
1042,1685097184516,425.0,472.0
1043,1685097184516,509.0,416.0
1044,1685097184516,466.0,463.0
1045,1685097184516,517.0,429.0
1046,1685097184516,479.0,450.0
1047,1685097184516,493.0,423.0
1048,1685097184516,448.0,416.0
1049,1685097184516,498.0,454.0
1050,1685097184516,352.0,397.0
1051,1685097184516,448.0,431.0
1052,1685097184516,431.0,460.0
1053,1685097184516,319.0,401.0
1054,1685097184516,393.0,415.0
1055,1685097184516,381.0,451.0
1056,1685097184516,398.0,432.0
1057,1685097184516,361.0,436.0
1058,1685097184516,501.0,449.0
1059,1685097184516,422.0,461.0
1060,1685097184516,518.0,435.0
1061,1685097184516,467.0,454.0
1062,1685097184516,518.0,429.0
1063,1685097184516,473.0,442.0
1064,1685097184516,489.0,422.0
1065,1685097184516,440.0,419.0
1066,1685097184516,488.0,445.0
1067,1685097184516,335.0,395.0
1068,1685097184532,448.0,430.0
1069,1685097184532,424.0,473.0
1070,1685097184532,315.0,401.0
1071,1685097184532,401.0,422.0
1072,1685097184532,379.0,451.0
1073,1685097184532,417.0,430.0
1074,1685097184532,368.0,433.0
1075,1685097184532,505.0,460.0
1076,1685097184532,418.0,452.0
1077,1685097184532,501.0,440.0
1078,1685097184532,452.0,449.0
1079,1685097184532,507.0,432.0
1080,1685097184532,465.0,440.0
1081,1685097184532,486.0,420.0
1082,1685097184532,448.0,422.0
1083,1685097184532,489.0,438.0
1084,1685097184532,356.0,395.0
1085,1685097184532,464.0,450.0
1086,1685097184533,432.0,449.0
1087,1685097184533,329.0,413.0
1088,1685097184533,412.0,422.0
1089,1685097184533,386.0,464.0
1090,1685097184533,396.0,421.0
1091,1685097184533,358.0,430.0
1092,1685097184533,499.0,451.0
1093,1685097184533,418.0,460.0
1094,1685097184533,505.0,439.0
1095,1685097184533,450.0,449.0
1096,1685097184533,512.0,428.0
1097,1685097184533,476.0,441.0
1098,1685097184533,498.0,418.0
1099,1685097184533,459.0,429.0
1100,1685097184533,491.0,447.0
1101,1685097184533,363.0,390.0
1102,1685097184533,477.0,441.0
1103,1685097184533,416.0,451.0
1104,1685097184533,318.0,407.0
1105,1685097184533,414.0,418.0
1106,1685097184533,375.0,465.0
1107,1685097184533,392.0,402.0
1108,1685097184533,344.0,432.0
1109,1685097184533,484.0,452.0
1110,1685097184533,413.0,460.0
1111,1685097184533,511.0,436.0
1112,1685097184533,462.0,460.0
1113,1685097184533,521.0,425.0
1114,1685097184533,476.0,444.0
1115,1685097184533,496.0,423.0
1116,1685097184533,458.0,424.0
1117,1685097184533,482.0,436.0
1118,1685097184533,359.0,390.0
1119,1685097184533,471.0,445.0
1120,1685097184533,402.0,443.0
1121,1685097184533,318.0,401.0
1122,1685097184533,421.0,417.0
1123,1685097184533,378.0,459.0
1124,1685097184533,393.0,419.0
1125,1685097184533,358.0,434.0
1126,1685097184533,496.0,445.0
1127,1685097184533,416.0,460.0
1128,1685097184533,518.0,442.0
1129,1685097184533,457.0,455.0
1130,1685097184533,518.0,432.0
1131,1685097184533,466.0,434.0
1132,1685097184533,495.0,425.0
1133,1685097184533,457.0,427.0
1134,1685097184533,476.0,429.0
1135,1685097184533,360.0,390.0
1136,1685097184533,472.0,449.0
1137,1685097184533,405.0,439.0
1138,1685097184533,330.0,401.0
1139,1685097184533,432.0,429.0
1140,1685097184533,368.0,457.0
1141,1685097184533,399.0,415.0
1142,1685097184533,380.0,447.0
1143,1685097184533,495.0,460.0
1144,1685097184533,398.0,445.0
1145,1685097184533,519.0,452.0
1146,1685097184533,447.0,450.0
1147,1685097184533,512.0,423.0
1148,1685097184533,468.0,452.0
1149,1685097184533,492.0,414.0
1150,1685097184533,464.0,430.0
1151,1685097184533,484.0,439.0
1152,1685097184533,364.0,389.0
1153,1685097184533,487.0,445.0
1154,1685097184533,398.0,445.0
1155,1685097184533,328.0,399.0
1156,1685097184533,442.0,432.0
1157,1685097184533,377.0,456.0
1158,1685097184533,383.0,412.0
1159,1685097184533,361.0,436.0
1160,1685097184533,484.0,457.0
1161,1685097184533,411.0,454.0
1162,1685097184533,515.0,442.0
1163,1685097184533,448.0,459.0
1164,1685097184533,509.0,417.0
1165,1685097184533,468.0,445.0
1166,1685097184533,506.0,419.0
1167,1685097184537,463.0,433.0
1168,1685097184537,488.0,445.0
1169,1685097184537,365.0,378.0
1170,1685097184537,482.0,455.0
1171,1685097184537,399.0,433.0
1172,1685097184537,340.0,401.0
1173,1685097184537,433.0,438.0
1174,1685097184537,374.0,445.0
1175,1685097184537,376.0,414.0
1176,1685097184537,361.0,433.0
1177,1685097184537,478.0,454.0
1178,1685097184537,401.0,453.0
1179,1685097184537,522.0,453.0
1180,1685097184537,451.0,448.0
1181,1685097184537,520.0,422.0
1182,1685097184537,471.0,450.0
1183,1685097184537,504.0,427.0
1184,1685097184537,472.0,420.0
1185,1685097184537,479.0,445.0
1186,1685097184537,370.0,391.0
1187,1685097184537,488.0,453.0
1188,1685097184537,380.0,429.0
1189,1685097184537,342.0,403.0
1190,1685097184537,444.0,444.0
1191,1685097184537,366.0,439.0
1192,1685097184537,385.0,413.0
1193,1685097184537,369.0,445.0
1194,1685097184537,474.0,451.0
1195,1685097184537,406.0,451.0
1196,1685097184537,510.0,446.0
1197,1685097184537,454.0,453.0
1198,1685097184537,513.0,430.0
1199,1685097184537,459.0,443.0
1200,1685097184537,501.0,426.0
1201,1685097184537,467.0,426.0
1202,1685097184537,483.0,442.0
1203,1685097184537,377.0,374.0
1204,1685097184537,487.0,456.0
1205,1685097184537,386.0,425.0
1206,1685097184537,359.0,400.0
1207,1685097184537,458.0,449.0
1208,1685097184537,358.0,444.0
1209,1685097184537,385.0,413.0
1210,1685097184537,374.0,437.0
1211,1685097184537,475.0,450.0
1212,1685097184537,396.0,448.0
1213,1685097184537,522.0,444.0
1214,1685097184537,448.0,457.0
1215,1685097184537,505.0,422.0
1216,1685097184537,457.0,452.0
1217,1685097184537,508.0,427.0
1218,1685097184537,471.0,436.0
1219,1685097184537,481.0,432.0
1220,1685097184537,383.0,397.0
1221,1685097184537,498.0,455.0
1222,1685097184537,381.0,428.0
1223,1685097184537,352.0,406.0
1224,1685097184537,454.0,448.0
1225,1685097184537,364.0,449.0
1226,1685097184537,371.0,406.0
1227,1685097184537,375.0,448.0
1228,1685097184537,474.0,460.0
1229,1685097184537,388.0,452.0
1230,1685097184537,519.0,455.0
1231,1685097184537,449.0,458.0
1232,1685097184537,510.0,426.0
1233,1685097184537,469.0,443.0
1234,1685097184537,505.0,432.0
1235,1685097184537,471.0,436.0
1236,1685097184537,490.0,430.0
1237,1685097184537,383.0,405.0
1238,1685097184537,500.0,444.0
1239,1685097184537,371.0,423.0
1240,1685097184537,362.0,398.0
1241,1685097184537,459.0,458.0
1242,1685097184537,360.0,447.0
1243,1685097184537,374.0,401.0
1244,1685097184537,375.0,443.0
1245,1685097184537,473.0,441.0
1246,1685097184537,393.0,445.0
1247,1685097184537,527.0,440.0
1248,1685097184537,459.0,467.0
1249,1685097184537,514.0,420.0
1250,1685097184537,465.0,447.0
1251,1685097184537,506.0,423.0
1252,1685097184537,468.0,432.0
1253,1685097184537,476.0,429.0
1254,1685097184537,390.0,388.0
1255,1685097184537,509.0,458.0
1256,1685097184537,372.0,422.0
1257,1685097184537,366.0,409.0
1258,1685097184537,466.0,453.0
1259,1685097184537,352.0,440.0
1260,1685097184537,379.0,412.0
1261,1685097184537,380.0,443.0
1262,1685097184537,454.0,465.0
1263,1685097184537,388.0,446.0
1264,1685097184537,516.0,447.0
1265,1685097184537,453.0,461.0
1266,1685097184537,517.0,420.0
1267,1685097184537,464.0,439.0
1268,1685097184537,510.0,424.0
1269,1685097184537,474.0,436.0
1270,1685097184537,478.0,441.0
1271,1685097184537,394.0,391.0
1272,1685097184537,495.0,470.0
1273,1685097184537,362.0,421.0
1274,1685097184537,376.0,420.0
1275,1685097184537,462.0,460.0
1276,1685097184537,339.0,432.0
1277,1685097184537,377.0,419.0
1278,1685097184537,375.0,454.0
1279,1685097184537,471.0,427.0
1280,1685097184537,386.0,455.0
1281,1685097184537,516.0,446.0
1282,1685097184537,450.0,463.0
1283,1685097184537,517.0,430.0
1284,1685097184537,467.0,444.0
1285,1685097184537,517.0,427.0
1286,1685097184537,467.0,431.0
1287,1685097184537,486.0,431.0
1288,1685097184537,395.0,395.0
1289,1685097184537,495.0,452.0
1290,1685097184537,361.0,425.0
1291,1685097184537,376.0,424.0
1292,1685097184537,476.0,459.0
1293,1685097184537,341.0,442.0
1294,1685097184537,378.0,402.0
1295,1685097184537,370.0,450.0
1296,1685097184537,466.0,444.0
1297,1685097184537,385.0,454.0
1298,1685097184537,508.0,447.0
1299,1685097184537,445.0,447.0
1300,1685097184537,514.0,428.0
1301,1685097184537,464.0,456.0
1302,1685097184537,508.0,419.0
1303,1685097184537,464.0,439.0
1304,1685097184537,481.0,432.0
1305,1685097184537,415.0,412.0
1306,1685097184537,497.0,453.0
1307,1685097184537,361.0,410.0
1308,1685097184537,403.0,431.0
1309,1685097184537,465.0,443.0
1310,1685097184537,352.0,448.0
1311,1685097184537,376.0,399.0
1312,1685097184537,375.0,455.0
1313,1685097184537,450.0,438.0
1314,1685097184537,364.0,437.0
1315,1685097184537,518.0,453.0
1316,1685097184537,440.0,454.0
1317,1685097184537,497.0,433.0
1318,1685097184537,462.0,447.0
1319,1685097184537,510.0,407.0
1320,1685097184537,484.0,440.0
1321,1685097184537,480.0,437.0
1322,1685097184537,411.0,397.0
1323,1685097184537,503.0,461.0
1324,1685097184537,358.0,409.0
1325,1685097184537,396.0,428.0
1326,1685097184537,472.0,461.0
1327,1685097184537,333.0,433.0
1328,1685097184537,379.0,404.0
1329,1685097184537,376.0,447.0
1330,1685097184537,445.0,445.0
1331,1685097184537,373.0,453.0
1332,1685097184537,506.0,438.0
1333,1685097184537,444.0,456.0
1334,1685097184537,520.0,431.0
1335,1685097184537,466.0,441.0
1336,1685097184537,509.0,426.0
1337,1685097184537,486.0,428.0
1338,1685097184537,476.0,423.0
1339,1685097184537,415.0,412.0
1340,1685097184537,492.0,447.0
1341,1685097184537,351.0,401.0
1342,1685097184537,405.0,422.0
1343,1685097184537,467.0,452.0
1344,1685097184537,337.0,434.0
1345,1685097184537,382.0,410.0
1346,1685097184537,372.0,454.0
1347,1685097184537,447.0,443.0
1348,1685097184537,368.0,441.0
1349,1685097184537,502.0,444.0
1350,1685097184537,439.0,464.0
1351,1685097184537,516.0,430.0
1352,1685097184537,459.0,452.0
1353,1685097184537,508.0,424.0
1354,1685097184537,466.0,434.0
1355,1685097184537,480.0,427.0
1356,1685097184537,411.0,409.0
1357,1685097184537,520.0,444.0
1358,1685097184537,355.0,404.0
1359,1685097184537,405.0,431.0
1360,1685097184537,474.0,463.0
1361,1685097184537,325.0,424.0
1362,1685097184537,387.0,413.0
1363,1685097184537,382.0,458.0
1364,1685097184537,436.0,454.0
1365,1685097184537,366.0,438.0
1366,1685097184537,516.0,453.0
1367,1685097184537,432.0,452.0
1368,1685097184537,506.0,429.0
1369,1685097184537,462.0,448.0
1370,1685097184537,513.0,427.0
1371,1685097184537,476.0,439.0
1372,1685097184537,485.0,425.0
1373,1685097184537,427.0,403.0
1374,1685097184537,502.0,454.0
1375,1685097184537,349.0,413.0
1376,1685097184537,413.0,418.0
1377,1685097184537,459.0,472.0
1378,1685097184537,325.0,428.0
1379,1685097184537,389.0,400.0
1380,1685097184537,378.0,459.0
1381,1685097184537,430.0,437.0
1382,1685097184537,357.0,430.0
1383,1685097184537,511.0,457.0
1384,1685097184537,433.0,448.0
1385,1685097184537,512.0,424.0
1386,1685097184537,462.0,451.0
1387,1685097184537,518.0,419.0
1388,1685097184537,469.0,439.0
1389,1685097184537,483.0,425.0
1390,1685097184537,426.0,403.0
1391,1685097184537,497.0,455.0
1392,1685097184537,349.0,393.0
1393,1685097184537,422.0,424.0
1394,1685097184537,447.0,456.0
1395,1685097184537,324.0,428.0
1396,1685097184537,391.0,413.0
1397,1685097184537,383.0,453.0
1398,1685097184537,434.0,436.0
1399,1685097184537,356.0,431.0
1400,1685097184537,506.0,443.0
1401,1685097184537,430.0,457.0
1402,1685097184537,512.0,427.0
1403,1685097184537,469.0,450.0
1404,1685097184537,522.0,422.0
1405,1685097184537,467.0,426.0
1406,1685097184537,487.0,426.0
1407,1685097184537,429.0,408.0
1408,1685097184537,493.0,461.0
1409,1685097184537,347.0,397.0
1410,1685097184537,431.0,431.0
1411,1685097184537,448.0,463.0
1412,1685097184537,316.0,419.0
1413,1685097184537,387.0,416.0
1414,1685097184537,383.0,441.0
1415,1685097184537,422.0,440.0
1416,1685097184537,361.0,437.0
1417,1685097184537,498.0,454.0
1418,1685097184537,430.0,462.0
1419,1685097184537,514.0,426.0
1420,1685097184537,461.0,458.0
1421,1685097184537,519.0,421.0
1422,1685097184537,471.0,433.0
1423,1685097184537,493.0,427.0
1424,1685097184537,437.0,405.0
1425,1685097184537,504.0,438.0
1426,1685097184537,345.0,400.0
1427,1685097184537,436.0,437.0
1428,1685097184537,441.0,464.0
1429,1685097184537,322.0,416.0
1430,1685097184537,394.0,418.0
1431,1685097184537,383.0,457.0
1432,1685097184537,425.0,442.0
1433,1685097184537,364.0,424.0
1434,1685097184537,505.0,449.0
1435,1685097184537,427.0,466.0
1436,1685097184537,508.0,441.0
1437,1685097184537,460.0,445.0
1438,1685097184537,512.0,422.0
1439,1685097184537,458.0,442.0
1440,1685097184537,483.0,418.0
1441,1685097184537,438.0,413.0
1442,1685097184537,496.0,448.0
1443,1685097184537,344.0,399.0
1444,1685097184537,439.0,425.0
1445,1685097184537,439.0,462.0
1446,1685097184537,316.0,403.0
1447,1685097184537,398.0,429.0
1448,1685097184537,381.0,452.0
1449,1685097184537,410.0,426.0
1450,1685097184537,354.0,434.0
1451,1685097184537,509.0,452.0
1452,1685097184537,429.0,451.0
1453,1685097184537,506.0,430.0
1454,1685097184537,458.0,452.0
1455,1685097184537,513.0,419.0
1456,1685097184537,473.0,444.0
1457,1685097184537,491.0,418.0
1458,1685097184537,437.0,410.0
1459,1685097184537,490.0,456.0
1460,1685097184537,346.0,401.0
1461,1685097184537,448.0,429.0
1462,1685097184537,425.0,456.0
1463,1685097184537,307.0,399.0
1464,1685097184537,406.0,418.0
1465,1685097184537,384.0,444.0
1466,1685097184537,413.0,428.0
1467,1685097184537,362.0,440.0
1468,1685097184537,505.0,445.0
1469,1685097184537,417.0,466.0
1470,1685097184537,513.0,430.0
1471,1685097184537,459.0,446.0
1472,1685097184537,513.0,431.0
1473,1685097184537,469.0,443.0
1474,1685097184537,493.0,420.0
1475,1685097184537,446.0,424.0
1476,1685097184537,489.0,440.0
1477,1685097184537,346.0,390.0
1478,1685097184537,448.0,439.0
1479,1685097184537,432.0,457.0
1480,1685097184537,301.0,398.0
1481,1685097184537,405.0,425.0
1482,1685097184537,396.0,452.0
1483,1685097184537,400.0,425.0
1484,1685097184537,353.0,441.0
1485,1685097184537,501.0,452.0
1486,1685097184537,421.0,466.0
1487,1685097184537,512.0,427.0
1488,1685097184537,462.0,451.0
1489,1685097184537,518.0,426.0
1490,1685097184537,471.0,441.0
1491,1685097184537,496.0,426.0
1492,1685097184537,451.0,426.0
1493,1685097184537,490.0,451.0
1494,1685097184537,357.0,392.0
1495,1685097184537,459.0,444.0
1496,1685097184537,428.0,449.0
1497,1685097184537,319.0,395.0
1498,1685097184537,404.0,431.0
1499,1685097184537,374.0,451.0
1500,1685097184537,399.0,420.0
1501,1685097184537,351.0,445.0
1502,1685097184537,498.0,449.0
1503,1685097184537,416.0,458.0
1504,1685097184537,514.0,444.0
1505,1685097184537,462.0,448.0
1506,1685097184537,522.0,429.0
1507,1685097184537,469.0,437.0
1508,1685097184537,494.0,427.0
1509,1685097184537,443.0,417.0
1510,1685097184537,480.0,430.0
1511,1685097184537,356.0,396.0
1512,1685097184537,462.0,439.0
1513,1685097184537,410.0,436.0
1514,1685097184537,316.0,409.0
1515,1685097184537,428.0,430.0
1516,1685097184537,377.0,455.0
1517,1685097184537,395.0,426.0
1518,1685097184537,360.0,438.0
1519,1685097184537,500.0,452.0
1520,1685097184537,419.0,463.0
1521,1685097184537,509.0,432.0
1522,1685097184537,446.0,450.0
1523,1685097184537,516.0,428.0
1524,1685097184537,461.0,427.0
1525,1685097184537,491.0,414.0
1526,1685097184537,456.0,428.0
1527,1685097184537,475.0,435.0
1528,1685097184537,355.0,390.0
1529,1685097184537,465.0,440.0
1530,1685097184548,410.0,452.0
1531,1685097184548,314.0,400.0
1532,1685097184548,417.0,433.0
1533,1685097184548,379.0,452.0
1534,1685097184548,393.0,425.0
1535,1685097184548,356.0,434.0
1536,1685097184548,492.0,454.0
1537,1685097184548,418.0,457.0
1538,1685097184548,520.0,441.0
1539,1685097184548,453.0,446.0
1540,1685097184548,522.0,428.0
1541,1685097184548,471.0,447.0
1542,1685097184548,502.0,417.0
1543,1685097184548,463.0,419.0
1544,1685097184548,488.0,451.0
1545,1685097184548,356.0,383.0
1546,1685097184548,484.0,450.0
1547,1685097184548,401.0,432.0
1548,1685097184548,311.0,401.0
1549,1685097184548,421.0,428.0
1550,1685097184548,374.0,461.0
1551,1685097184548,387.0,422.0
1552,1685097184548,369.0,439.0
1553,1685097184548,492.0,458.0
1554,1685097184548,408.0,457.0
1555,1685097184548,517.0,447.0
1556,1685097184548,455.0,444.0
1557,1685097184548,518.0,433.0
1558,1685097184548,469.0,444.0
1559,1685097184548,502.0,423.0
1560,1685097184548,460.0,421.0
1561,1685097184548,495.0,440.0
1562,1685097184548,358.0,382.0
1563,1685097184548,467.0,446.0
1564,1685097184548,401.0,445.0
1565,1685097184548,330.0,405.0
1566,1685097184548,436.0,434.0
1567,1685097184548,374.0,457.0
1568,1685097184548,387.0,414.0
1569,1685097184548,365.0,443.0
1570,1685097184548,496.0,455.0
1571,1685097184548,410.0,454.0
1572,1685097184548,513.0,439.0
1573,1685097184548,448.0,445.0
1574,1685097184548,501.0,426.0
1575,1685097184548,457.0,448.0
1576,1685097184548,496.0,419.0
1577,1685097184548,457.0,421.0
1578,1685097184548,484.0,445.0
1579,1685097184548,370.0,390.0
1580,1685097184548,488.0,451.0
1581,1685097184548,399.0,434.0
1582,1685097184548,333.0,402.0
1583,1685097184548,445.0,441.0
1584,1685097184548,369.0,459.0
1585,1685097184548,378.0,410.0
1586,1685097184548,354.0,440.0
1587,1685097184548,470.0,429.0
1588,1685097184548,397.0,457.0
1589,1685097184548,518.0,442.0
1590,1685097184548,454.0,451.0
1591,1685097184548,517.0,426.0
1592,1685097184548,475.0,433.0
1593,1685097184548,512.0,426.0
1594,1685097184548,479.0,430.0
1595,1685097184548,482.0,435.0
1596,1685097184548,372.0,390.0
1597,1685097184548,491.0,456.0
1598,1685097184548,382.0,423.0
1599,1685097184548,332.0,413.0
1600,1685097184548,437.0,433.0
1601,1685097184548,350.0,446.0
1602,1685097184548,367.0,412.0
1603,1685097184548,353.0,429.0
1604,1685097184548,486.0,454.0
1605,1685097184548,401.0,449.0
1606,1685097184548,527.0,453.0
1607,1685097184548,467.0,455.0
1608,1685097184548,521.0,427.0
1609,1685097184548,470.0,440.0
1610,1685097184548,513.0,417.0
1611,1685097184548,464.0,432.0
1612,1685097184548,481.0,429.0
1613,1685097184548,370.0,393.0
1614,1685097184548,477.0,446.0
1615,1685097184548,379.0,425.0
1616,1685097184548,335.0,405.0
1617,1685097184548,459.0,459.0
1618,1685097184548,367.0,443.0
1619,1685097184548,376.0,416.0
1620,1685097184548,371.0,440.0
1621,1685097184548,485.0,435.0
1622,1685097184548,400.0,462.0
1623,1685097184548,529.0,438.0
1624,1685097184548,458.0,464.0
1625,1685097184548,511.0,417.0
1626,1685097184548,468.0,445.0
1627,1685097184548,499.0,417.0
1628,1685097184548,463.0,431.0
1629,1685097184548,472.0,433.0
1630,1685097184548,376.0,396.0
1631,1685097184548,493.0,446.0
1632,1685097184548,390.0,431.0
1633,1685097184548,358.0,412.0
1634,1685097184548,452.0,444.0
1635,1685097184548,375.0,444.0
1636,1685097184548,390.0,416.0
1637,1685097184548,371.0,443.0
1638,1685097184548,481.0,459.0
1639,1685097184548,380.0,449.0
1640,1685097184548,514.0,443.0
1641,1685097184548,451.0,458.0
1642,1685097184548,503.0,423.0
1643,1685097184548,464.0,443.0
1644,1685097184548,501.0,422.0
1645,1685097184548,465.0,434.0
1646,1685097184548,481.0,439.0
1647,1685097184548,382.0,398.0
1648,1685097184548,498.0,467.0
1649,1685097184548,380.0,416.0
1650,1685097184548,357.0,414.0
1651,1685097184548,468.0,455.0
1652,1685097184548,360.0,439.0
1653,1685097184548,373.0,399.0
1654,1685097184548,363.0,441.0
1655,1685097184548,459.0,438.0
1656,1685097184548,384.0,449.0
1657,1685097184548,515.0,440.0
1658,1685097184548,451.0,464.0
1659,1685097184548,512.0,436.0
1660,1685097184548,469.0,449.0
1661,1685097184548,518.0,418.0
1662,1685097184548,471.0,427.0
1663,1685097184548,489.0,431.0
1664,1685097184548,387.0,396.0
1665,1685097184548,489.0,444.0
1666,1685097184552,365.0,416.0
1667,1685097184552,356.0,412.0
1668,1685097184552,460.0,451.0
1669,1685097184552,340.0,455.0
1670,1685097184552,366.0,400.0
1671,1685097184552,366.0,446.0
1672,1685097184552,475.0,446.0
1673,1685097184552,385.0,454.0
1674,1685097184552,521.0,449.0
1675,1685097184552,464.0,463.0
1676,1685097184552,519.0,422.0
1677,1685097184552,472.0,445.0
1678,1685097184552,521.0,421.0
1679,1685097184552,469.0,429.0
1680,1685097184552,467.0,429.0
1681,1685097184552,386.0,392.0
1682,1685097184552,505.0,457.0
1683,1685097184552,372.0,417.0
1684,1685097184552,368.0,410.0
1685,1685097184552,467.0,465.0
1686,1685097184552,347.0,445.0
1687,1685097184552,377.0,408.0
1688,1685097184552,376.0,446.0
1689,1685097184552,480.0,447.0
1690,1685097184552,382.0,453.0
1691,1685097184552,520.0,444.0
1692,1685097184552,452.0,464.0
1693,1685097184552,506.0,433.0
1694,1685097184552,455.0,455.0
1695,1685097184552,501.0,421.0
1696,1685097184552,464.0,426.0
1697,1685097184552,474.0,424.0
1698,1685097184552,405.0,404.0
1699,1685097184552,505.0,459.0
1700,1685097184552,366.0,414.0
1701,1685097184552,383.0,407.0
1702,1685097184552,476.0,470.0
1703,1685097184552,352.0,442.0
1704,1685097184552,372.0,411.0
1705,1685097184552,389.0,456.0
1706,1685097184552,470.0,452.0
1707,1685097184552,369.0,444.0
1708,1685097184552,500.0,444.0
1709,1685097184552,450.0,450.0
1710,1685097184552,502.0,419.0
1711,1685097184552,460.0,446.0
1712,1685097184552,512.0,412.0
1713,1685097184552,473.0,439.0
1714,1685097184552,487.0,442.0
1715,1685097184552,411.0,402.0
1716,1685097184552,497.0,453.0
1717,1685097184552,371.0,410.0
1718,1685097184552,386.0,418.0
1719,1685097184552,463.0,460.0
1720,1685097184552,341.0,440.0
1721,1685097184552,370.0,408.0
1722,1685097184552,371.0,446.0
1723,1685097184552,455.0,452.0
1724,1685097184552,370.0,447.0
1725,1685097184552,510.0,441.0
1726,1685097184552,446.0,462.0
1727,1685097184552,517.0,435.0
1728,1685097184552,475.0,439.0
1729,1685097184552,529.0,432.0
1730,1685097184552,480.0,431.0
1731,1685097184552,483.0,425.0
1732,1685097184552,408.0,403.0
1733,1685097184552,496.0,452.0
1734,1685097184552,352.0,400.0
1735,1685097184552,381.0,421.0
1736,1685097184552,461.0,466.0
1737,1685097184552,340.0,441.0
1738,1685097184552,372.0,405.0
1739,1685097184552,374.0,450.0
1740,1685097184552,457.0,447.0
1741,1685097184552,376.0,449.0
1742,1685097184552,517.0,451.0
1743,1685097184552,453.0,465.0
1744,1685097184552,518.0,427.0
1745,1685097184552,460.0,450.0
1746,1685097184552,509.0,420.0
1747,1685097184552,467.0,438.0
1748,1685097184552,480.0,441.0
1749,1685097184552,411.0,409.0
1750,1685097184552,501.0,460.0
1751,1685097184552,356.0,411.0
1752,1685097184552,394.0,414.0
1753,1685097184552,471.0,463.0
1754,1685097184552,343.0,433.0
1755,1685097184552,387.0,411.0
1756,1685097184552,386.0,452.0
1757,1685097184552,457.0,445.0
1758,1685097184552,371.0,445.0
1759,1685097184552,507.0,442.0
1760,1685097184552,442.0,475.0
1761,1685097184552,497.0,419.0
1762,1685097184552,454.0,447.0
1763,1685097184552,499.0,419.0
1764,1685097184552,455.0,433.0
1765,1685097184552,485.0,423.0
1766,1685097184552,416.0,403.0
1767,1685097184552,512.0,459.0
1768,1685097184552,367.0,412.0
1769,1685097184552,417.0,433.0
1770,1685097184552,468.0,436.0
1771,1685097184552,342.0,439.0
1772,1685097184552,382.0,412.0
1773,1685097184552,382.0,455.0
1774,1685097184552,441.0,437.0
1775,1685097184552,344.0,432.0
1776,1685097184552,496.0,441.0
1777,1685097184552,432.0,457.0
1778,1685097184552,503.0,428.0
1779,1685097184552,462.0,447.0
1780,1685097184552,522.0,423.0
1781,1685097184552,479.0,441.0
1782,1685097184552,490.0,430.0
1783,1685097184552,432.0,409.0
1784,1685097184552,500.0,459.0
1785,1685097184552,357.0,417.0
1786,1685097184552,407.0,423.0
1787,1685097184552,445.0,470.0
1788,1685097184552,326.0,430.0
1789,1685097184552,372.0,407.0
1790,1685097184552,376.0,450.0
1791,1685097184552,436.0,429.0
1792,1685097184552,357.0,440.0
1793,1685097184552,513.0,454.0
1794,1685097184552,435.0,457.0
1795,1685097184552,519.0,433.0
1796,1685097184552,477.0,458.0
1797,1685097184552,519.0,429.0
1798,1685097184552,473.0,426.0
1799,1685097184552,482.0,429.0
1800,1685097184552,426.0,403.0
1801,1685097184552,499.0,456.0
1802,1685097184552,334.0,392.0
1803,1685097184552,417.0,429.0
1804,1685097184552,457.0,466.0
1805,1685097184552,324.0,418.0
1806,1685097184552,389.0,410.0
1807,1685097184552,387.0,456.0
1808,1685097184552,437.0,443.0
1809,1685097184552,362.0,432.0
1810,1685097184552,516.0,456.0
1811,1685097184552,440.0,458.0
1812,1685097184552,511.0,433.0
1813,1685097184552,457.0,447.0
1814,1685097184552,510.0,430.0
1815,1685097184552,463.0,425.0
1816,1685097184552,483.0,430.0
1817,1685097184552,429.0,404.0
1818,1685097184552,504.0,463.0
1819,1685097184552,357.0,415.0
1820,1685097184552,425.0,422.0
1821,1685097184552,456.0,463.0
1822,1685097184552,323.0,422.0
1823,1685097184552,393.0,409.0
1824,1685097184552,390.0,467.0
1825,1685097184552,427.0,432.0
1826,1685097184552,356.0,446.0
1827,1685097184552,509.0,450.0
1828,1685097184552,430.0,450.0
1829,1685097184552,503.0,433.0
1830,1685097184552,456.0,443.0
1831,1685097184552,512.0,425.0
1832,1685097184552,462.0,446.0
1833,1685097184552,480.0,420.0
1834,1685097184552,439.0,411.0
1835,1685097184552,502.0,452.0
1836,1685097184552,349.0,397.0
1837,1685097184552,439.0,440.0
1838,1685097184552,442.0,462.0
1839,1685097184552,323.0,410.0
1840,1685097184552,396.0,417.0
1841,1685097184552,379.0,447.0
1842,1685097184552,421.0,436.0
1843,1685097184552,348.0,441.0
1844,1685097184552,494.0,445.0
1845,1685097184552,424.0,462.0
1846,1685097184552,507.0,426.0
1847,1685097184552,468.0,459.0
1848,1685097184552,522.0,424.0
1849,1685097184552,477.0,442.0
1850,1685097184552,499.0,414.0
1851,1685097184552,435.0,417.0
1852,1685097184552,496.0,454.0
1853,1685097184552,349.0,389.0
1854,1685097184552,445.0,439.0
1855,1685097184552,437.0,456.0
1856,1685097184552,312.0,409.0
1857,1685097184552,394.0,417.0
1858,1685097184552,367.0,453.0
1859,1685097184552,415.0,419.0
1860,1685097184552,356.0,441.0
1861,1685097184552,501.0,444.0
1862,1685097184552,422.0,460.0
1863,1685097184552,519.0,434.0
1864,1685097184552,472.0,452.0
1865,1685097184552,528.0,431.0
1866,1685097184552,478.0,444.0
1867,1685097184552,498.0,420.0
1868,1685097184552,449.0,423.0
1869,1685097184552,492.0,445.0
1870,1685097184552,338.0,396.0
1871,1685097184552,445.0,431.0
1872,1685097184552,425.0,452.0
1873,1685097184552,311.0,407.0
1874,1685097184552,401.0,413.0
1875,1685097184552,376.0,457.0
1876,1685097184552,410.0,427.0
1877,1685097184552,355.0,429.0
1878,1685097184552,521.0,451.0
1879,1685097184552,425.0,452.0
1880,1685097184552,506.0,433.0
1881,1685097184552,457.0,445.0
1882,1685097184552,509.0,433.0
1883,1685097184552,465.0,437.0
1884,1685097184552,487.0,410.0
1885,1685097184552,441.0,418.0
1886,1685097184552,488.0,450.0
1887,1685097184552,345.0,391.0
1888,1685097184552,453.0,433.0
1889,1685097184552,426.0,447.0
1890,1685097184552,318.0,407.0
1891,1685097184552,418.0,424.0
1892,1685097184552,394.0,459.0
1893,1685097184552,410.0,433.0
1894,1685097184552,355.0,438.0
1895,1685097184552,503.0,449.0
1896,1685097184552,422.0,458.0
1897,1685097184552,509.0,441.0
1898,1685097184552,453.0,450.0
1899,1685097184552,502.0,414.0
1900,1685097184552,459.0,435.0
1901,1685097184552,492.0,426.0
1902,1685097184552,452.0,413.0
1903,1685097184552,496.0,435.0
1904,1685097184552,361.0,390.0
1905,1685097184552,469.0,444.0
1906,1685097184552,423.0,453.0
1907,1685097184552,312.0,409.0
1908,1685097184552,413.0,430.0
1909,1685097184552,374.0,460.0
1910,1685097184552,397.0,414.0
1911,1685097184552,339.0,434.0
1912,1685097184552,489.0,447.0
1913,1685097184552,408.0,469.0
1914,1685097184552,512.0,428.0
1915,1685097184552,461.0,449.0
1916,1685097184552,518.0,430.0
1917,1685097184552,474.0,449.0
1918,1685097184552,507.0,423.0
1919,1685097184552,463.0,427.0
1920,1685097184552,485.0,439.0
1921,1685097184552,356.0,397.0
1922,1685097184552,459.0,436.0
1923,1685097184552,410.0,445.0
1924,1685097184552,306.0,404.0
1925,1685097184552,415.0,432.0
1926,1685097184552,356.0,446.0
1927,1685097184552,396.0,421.0
1928,1685097184552,357.0,438.0
1929,1685097184552,503.0,451.0
1930,1685097184552,410.0,463.0
1931,1685097184552,519.0,441.0
1932,1685097184552,458.0,464.0
1933,1685097184552,521.0,424.0
1934,1685097184552,477.0,446.0
1935,1685097184552,499.0,421.0
1936,1685097184552,458.0,436.0
1937,1685097184552,480.0,441.0
1938,1685097184552,350.0,393.0
1939,1685097184552,461.0,439.0
1940,1685097184552,406.0,448.0
1941,1685097184552,317.0,405.0
1942,1685097184552,427.0,432.0
1943,1685097184552,380.0,454.0
1944,1685097184552,392.0,421.0
1945,1685097184552,366.0,425.0
1946,1685097184552,511.0,475.0
1947,1685097184552,423.0,457.0
1948,1685097184552,515.0,449.0
1949,1685097184552,452.0,446.0
1950,1685097184552,513.0,422.0
1951,1685097184552,468.0,445.0
1952,1685097184552,491.0,415.0
1953,1685097184552,454.0,422.0
1954,1685097184552,476.0,434.0
1955,1685097184552,350.0,401.0
1956,1685097184552,476.0,445.0
1957,1685097184552,406.0,444.0
1958,1685097184552,319.0,406.0
1959,1685097184552,441.0,435.0
1960,1685097184552,379.0,454.0
1961,1685097184552,399.0,417.0
1962,1685097184552,355.0,442.0
1963,1685097184552,495.0,454.0
1964,1685097184552,409.0,453.0
1965,1685097184552,507.0,445.0
1966,1685097184552,450.0,449.0
1967,1685097184552,506.0,418.0
1968,1685097184552,457.0,442.0
1969,1685097184552,504.0,422.0
1970,1685097184552,455.0,424.0
1971,1685097184552,481.0,430.0
1972,1685097184552,372.0,400.0
1973,1685097184552,486.0,443.0
1974,1685097184552,400.0,454.0
1975,1685097184552,325.0,408.0
1976,1685097184552,435.0,434.0
1977,1685097184552,370.0,454.0
1978,1685097184552,382.0,411.0
1979,1685097184552,347.0,431.0
1980,1685097184552,479.0,446.0
1981,1685097184552,393.0,448.0
1982,1685097184552,525.0,442.0
1983,1685097184552,456.0,455.0
1984,1685097184552,525.0,432.0
1985,1685097184552,474.0,447.0
1986,1685097184552,520.0,432.0
1987,1685097184552,478.0,431.0
1988,1685097184552,478.0,439.0
1989,1685097184552,373.0,387.0
1990,1685097184552,480.0,458.0
1991,1685097184552,385.0,443.0
1992,1685097184552,327.0,392.0
1993,1685097184552,430.0,440.0
1994,1685097184552,364.0,459.0
1995,1685097184552,376.0,408.0
1996,1685097184552,350.0,437.0
1997,1685097184552,498.0,455.0
1998,1685097184552,399.0,454.0
1999,1685097184552,517.0,458.0
2000,1685097184552,460.0,468.0
2001,1685097184552,520.0,421.0
2002,1685097184552,465.0,455.0
2003,1685097184552,508.0,425.0
2004,1685097184552,465.0,433.0
2005,1685097184552,481.0,431.0
2006,1685097184552,364.0,390.0
2007,1685097184552,486.0,467.0
2008,1685097184552,380.0,411.0
2009,1685097184552,340.0,418.0
2010,1685097184552,450.0,445.0
2011,1685097184552,364.0,443.0
2012,1685097184552,385.0,407.0
2013,1685097184552,372.0,453.0
2014,1685097184552,502.0,458.0
2015,1685097184552,403.0,453.0
2016,1685097184552,518.0,441.0
2017,1685097184552,455.0,458.0
2018,1685097184552,503.0,412.0
2019,1685097184552,456.0,437.0
2020,1685097184552,499.0,430.0
2021,1685097184552,449.0,422.0
2022,1685097184552,476.0,434.0
2023,1685097184552,374.0,402.0
2024,1685097184552,485.0,448.0
2025,1685097184552,381.0,430.0
2026,1685097184552,329.0,385.0
2027,1685097184552,464.0,444.0
2028,1685097184552,367.0,467.0
2029,1685097184552,380.0,406.0
2030,1685097184552,371.0,453.0
2031,1685097184552,483.0,455.0
2032,1685097184552,388.0,444.0
2033,1685097184552,512.0,449.0
2034,1685097184552,439.0,458.0
2035,1685097184552,496.0,416.0
2036,1685097184552,454.0,446.0
2037,1685097184552,498.0,416.0
2038,1685097184552,473.0,432.0
2039,1685097184552,487.0,429.0
2040,1685097184552,391.0,406.0
2041,1685097184552,510.0,451.0
2042,1685097184552,382.0,426.0
2043,1685097184552,366.0,405.0
2044,1685097184552,455.0,444.0
2045,1685097184552,355.0,444.0
2046,1685097184552,370.0,408.0
2047,1685097184552,347.0,440.0
2048,1685097184552,446.0,426.0
2049,1685097184552,379.0,460.0
2050,1685097184552,516.0,436.0
2051,1685097184552,461.0,469.0
2052,1685097184552,521.0,429.0
2053,1685097184552,478.0,451.0
2054,1685097184552,527.0,426.0
2055,1685097184552,485.0,449.0
2056,1685097184552,480.0,427.0
2057,1685097184552,392.0,396.0
2058,1685097184552,492.0,454.0
2059,1685097184552,354.0,421.0
2060,1685097184552,353.0,408.0
2061,1685097184552,448.0,451.0
2062,1685097184552,341.0,446.0
2063,1685097184552,363.0,397.0
2064,1685097184552,380.0,449.0
2065,1685097184552,481.0,452.0
2066,1685097184552,385.0,436.0
2067,1685097184552,531.0,452.0
2068,1685097184552,456.0,469.0
2069,1685097184552,518.0,413.0
2070,1685097184552,477.0,453.0
2071,1685097184552,509.0,417.0
2072,1685097184552,462.0,433.0
2073,1685097184552,473.0,429.0
2074,1685097184552,380.0,398.0
2075,1685097184552,494.0,451.0
2076,1685097184552,364.0,419.0
2077,1685097184552,375.0,411.0
2078,1685097184552,482.0,463.0
2079,1685097184552,350.0,446.0
2080,1685097184552,392.0,404.0
2081,1685097184552,386.0,448.0
2082,1685097184552,479.0,458.0
2083,1685097184552,387.0,449.0
2084,1685097184552,504.0,434.0
2085,1685097184552,442.0,457.0
2086,1685097184552,495.0,418.0
2087,1685097184552,445.0,450.0
2088,1685097184552,501.0,408.0
2089,1685097184552,446.0,430.0
2090,1685097184552,475.0,436.0
2091,1685097184552,394.0,400.0
2092,1685097184552,509.0,462.0
2093,1685097184552,385.0,429.0
2094,1685097184552,397.0,413.0
2095,1685097184552,483.0,471.0
2096,1685097184552,353.0,441.0
2097,1685097184552,379.0,410.0
2098,1685097184552,377.0,445.0
2099,1685097184552,455.0,438.0
2100,1685097184552,366.0,455.0
2101,1685097184552,495.0,433.0
2102,1685097184552,432.0,458.0
2103,1685097184552,503.0,427.0
2104,1685097184552,461.0,439.0
2105,1685097184552,521.0,427.0
2106,1685097184552,485.0,436.0
2107,1685097184552,501.0,433.0
2108,1685097184552,426.0,404.0
2109,1685097184552,501.0,457.0
2110,1685097184552,358.0,402.0
2111,1685097184552,388.0,418.0
2112,1685097184552,451.0,453.0
2113,1685097184552,332.0,453.0
2114,1685097184552,364.0,398.0
2115,1685097184552,361.0,448.0
2116,1685097184552,441.0,440.0
2117,1685097184552,357.0,432.0
2118,1685097184564,512.0,451.0
2119,1685097184564,445.0,466.0
2120,1685097184564,534.0,434.0
2121,1685097184564,483.0,453.0
2122,1685097184564,529.0,436.0
2123,1685097184564,491.0,445.0
2124,1685097184564,475.0,413.0
2125,1685097184564,415.0,407.0
2126,1685097184564,489.0,455.0
2127,1685097184564,341.0,404.0
2128,1685097184564,394.0,429.0
2129,1685097184564,451.0,456.0
2130,1685097184564,322.0,428.0
2131,1685097184564,382.0,415.0
2132,1685097184564,388.0,445.0
2133,1685097184564,450.0,453.0
2134,1685097184564,372.0,443.0
2135,1685097184564,513.0,452.0
2136,1685097184564,452.0,452.0
2137,1685097184564,520.0,433.0
2138,1685097184564,460.0,439.0
2139,1685097184564,506.0,419.0
2140,1685097184564,470.0,437.0
2141,1685097184564,474.0,416.0
2142,1685097184564,418.0,408.0
2143,1685097184564,506.0,454.0
2144,1685097184564,354.0,413.0
2145,1685097184564,414.0,417.0
2146,1685097184564,469.0,467.0
2147,1685097184564,340.0,436.0
2148,1685097184564,393.0,418.0
2149,1685097184564,386.0,452.0
2150,1685097184564,445.0,444.0
2151,1685097184564,360.0,448.0
2152,1685097184564,507.0,440.0
2153,1685097184564,423.0,458.0
2154,1685097184564,500.0,420.0
2155,1685097184564,450.0,452.0
2156,1685097184564,510.0,424.0
2157,1685097184564,464.0,435.0
2158,1685097184564,481.0,428.0
2159,1685097184564,427.0,409.0
2160,1685097184564,506.0,464.0
2161,1685097184564,356.0,395.0
2162,1685097184564,433.0,435.0
2163,1685097184564,462.0,465.0
2164,1685097184564,317.0,423.0
2165,1685097184564,386.0,407.0
2166,1685097184564,379.0,448.0
2167,1685097184564,433.0,437.0
2168,1685097184564,356.0,429.0
2169,1685097184564,492.0,443.0
2170,1685097184564,424.0,443.0
2171,1685097184564,507.0,431.0
2172,1685097184564,463.0,455.0
2173,1685097184564,521.0,432.0
2174,1685097184564,476.0,440.0
2175,1685097184564,494.0,423.0
2176,1685097184564,435.0,409.0
2177,1685097184564,510.0,459.0
2178,1685097184564,345.0,403.0
2179,1685097184564,420.0,424.0
2180,1685097184564,434.0,461.0
2181,1685097184564,313.0,426.0
2182,1685097184564,384.0,410.0
2183,1685097184564,369.0,452.0
2184,1685097184564,411.0,423.0
2185,1685097184564,345.0,432.0
2186,1685097184564,507.0,452.0
2187,1685097184564,436.0,466.0
2188,1685097184564,524.0,430.0
2189,1685097184564,476.0,451.0
2190,1685097184564,526.0,420.0
2191,1685097184564,475.0,442.0
2192,1685097184564,487.0,419.0
2193,1685097184564,429.0,414.0
2194,1685097184564,492.0,442.0
2195,1685097184564,335.0,392.0
2196,1685097184564,418.0,427.0
2197,1685097184564,443.0,453.0
2198,1685097184564,314.0,421.0
2199,1685097184564,393.0,424.0
2200,1685097184564,382.0,454.0
2201,1685097184564,423.0,435.0
2202,1685097184564,360.0,434.0
2203,1685097184564,512.0,453.0
2204,1685097184564,424.0,470.0
2205,1685097184564,506.0,423.0
2206,1685097184564,462.0,444.0
2207,1685097184564,510.0,422.0
2208,1685097184564,461.0,441.0
2209,1685097184564,478.0,419.0
2210,1685097184564,430.0,416.0
2211,1685097184564,499.0,446.0
2212,1685097184564,353.0,400.0
2213,1685097184564,454.0,450.0
2214,1685097184564,451.0,452.0
2215,1685097184564,317.0,411.0
2216,1685097184564,408.0,414.0
2217,1685097184564,391.0,462.0
2218,1685097184564,423.0,428.0
2219,1685097184564,358.0,430.0
2220,1685097184564,492.0,446.0
2221,1685097184564,420.0,458.0
2222,1685097184564,504.0,425.0
2223,1685097184564,449.0,440.0
2224,1685097184564,512.0,422.0
2225,1685097184564,467.0,441.0
2226,1685097184564,486.0,433.0
2227,1685097184564,451.0,422.0
2228,1685097184564,497.0,453.0
2229,1685097184564,357.0,398.0
2230,1685097184564,456.0,442.0
2231,1685097184564,433.0,455.0
2232,1685097184564,310.0,404.0
2233,1685097184564,403.0,424.0
2234,1685097184564,373.0,442.0
2235,1685097184564,396.0,416.0
2236,1685097184564,345.0,431.0
2237,1685097184564,494.0,450.0
2238,1685097184564,417.0,470.0
2239,1685097184564,510.0,426.0
2240,1685097184564,465.0,448.0
2241,1685097184564,532.0,435.0
2242,1685097184564,485.0,449.0
2243,1685097184564,509.0,432.0
2244,1685097184564,457.0,420.0
2245,1685097184564,490.0,437.0
2246,1685097184564,340.0,391.0
2247,1685097184564,454.0,427.0
2248,1685097184564,409.0,450.0
2249,1685097184564,305.0,391.0
2250,1685097184564,414.0,427.0
2251,1685097184564,360.0,448.0
2252,1685097184564,396.0,419.0
2253,1685097184564,359.0,434.0
2254,1685097184564,504.0,449.0
2255,1685097184564,431.0,461.0
2256,1685097184564,520.0,446.0
2257,1685097184564,457.0,443.0
2258,1685097184564,527.0,434.0
2259,1685097184564,473.0,451.0
2260,1685097184564,490.0,419.0
2261,1685097184564,452.0,434.0
2262,1685097184564,479.0,431.0
2263,1685097184564,352.0,388.0
2264,1685097184564,457.0,448.0
2265,1685097184564,409.0,439.0
2266,1685097184564,322.0,409.0
2267,1685097184564,423.0,425.0
2268,1685097184564,389.0,466.0
2269,1685097184564,397.0,418.0
2270,1685097184564,359.0,441.0
2271,1685097184564,502.0,464.0
2272,1685097184564,423.0,450.0
2273,1685097184564,518.0,450.0
2274,1685097184564,452.0,447.0
2275,1685097184564,505.0,428.0
2276,1685097184564,458.0,441.0
2277,1685097184564,489.0,419.0
2278,1685097184564,461.0,420.0
2279,1685097184564,489.0,445.0
2280,1685097184564,362.0,392.0
2281,1685097184564,478.0,452.0
2282,1685097184564,416.0,447.0
2283,1685097184564,326.0,391.0
2284,1685097184564,436.0,444.0
2285,1685097184564,374.0,453.0
2286,1685097184564,388.0,418.0
2287,1685097184564,355.0,442.0
2288,1685097184564,494.0,454.0
2289,1685097184564,404.0,458.0
2290,1685097184564,520.0,443.0
2291,1685097184564,451.0,448.0
2292,1685097184564,517.0,430.0
2293,1685097184564,472.0,441.0
2294,1685097184564,500.0,428.0
2295,1685097184564,467.0,422.0
2296,1685097184564,483.0,442.0
2297,1685097184564,367.0,396.0
2298,1685097184564,480.0,444.0
2299,1685097184564,400.0,444.0
2300,1685097184564,320.0,405.0
2301,1685097184564,431.0,441.0
2302,1685097184564,374.0,437.0
2303,1685097184564,380.0,404.0
2304,1685097184564,349.0,438.0
2305,1685097184564,474.0,451.0
2306,1685097184564,399.0,448.0
2307,1685097184564,529.0,453.0
2308,1685097184564,457.0,455.0
2309,1685097184564,519.0,442.0
2310,1685097184564,478.0,436.0
2311,1685097184564,502.0,418.0
2312,1685097184564,470.0,438.0
2313,1685097184564,485.0,438.0
2314,1685097184564,364.0,385.0
2315,1685097184564,480.0,449.0
2316,1685097184564,383.0,434.0
2317,1685097184564,334.0,409.0
2318,1685097184564,448.0,454.0
2319,1685097184564,356.0,443.0
2320,1685097184564,368.0,405.0
2321,1685097184564,364.0,441.0
2322,1685097184564,493.0,450.0
2323,1685097184564,406.0,455.0
2324,1685097184564,525.0,445.0
2325,1685097184564,452.0,457.0
2326,1685097184564,510.0,431.0
2327,1685097184564,470.0,449.0
2328,1685097184564,510.0,420.0
2329,1685097184564,466.0,434.0
2330,1685097184564,479.0,429.0
2331,1685097184564,369.0,389.0
2332,1685097184564,489.0,451.0
2333,1685097184564,382.0,431.0
2334,1685097184564,337.0,407.0
2335,1685097184564,450.0,442.0
2336,1685097184564,362.0,455.0
2337,1685097184564,374.0,404.0
2338,1685097184564,367.0,452.0
2339,1685097184564,496.0,449.0
2340,1685097184564,395.0,458.0
2341,1685097184564,527.0,441.0
2342,1685097184564,452.0,462.0
2343,1685097184564,515.0,432.0
2344,1685097184564,467.0,448.0
2345,1685097184564,508.0,421.0
2346,1685097184564,458.0,430.0
2347,1685097184564,478.0,431.0
2348,1685097184564,377.0,390.0
2349,1685097184564,493.0,448.0
2350,1685097184564,382.0,431.0
2351,1685097184564,355.0,410.0
2352,1685097184564,458.0,445.0
2353,1685097184564,360.0,451.0
2354,1685097184564,377.0,412.0
2355,1685097184564,371.0,447.0
2356,1685097184564,483.0,449.0
2357,1685097184564,379.0,448.0
2358,1685097184564,518.0,449.0
2359,1685097184564,454.0,456.0
2360,1685097184564,506.0,427.0
2361,1685097184564,461.0,438.0
2362,1685097184564,504.0,428.0
2363,1685097184564,470.0,426.0
2364,1685097184564,481.0,431.0
2365,1685097184564,387.0,396.0
2366,1685097184564,494.0,450.0
2367,1685097184564,385.0,428.0
2368,1685097184564,367.0,419.0
2369,1685097184564,465.0,457.0
2370,1685097184564,351.0,443.0
2371,1685097184564,367.0,405.0
2372,1685097184564,363.0,437.0
2373,1685097184564,458.0,442.0
2374,1685097184564,376.0,448.0
2375,1685097184564,505.0,449.0
2376,1685097184564,451.0,460.0
2377,1685097184564,513.0,430.0
2378,1685097184564,482.0,447.0
2379,1685097184564,523.0,430.0
2380,1685097184564,481.0,438.0
2381,1685097184564,484.0,423.0
2382,1685097184564,397.0,408.0
2383,1685097184564,498.0,445.0
2384,1685097184564,364.0,415.0
2385,1685097184564,360.0,419.0
2386,1685097184564,449.0,452.0
2387,1685097184564,333.0,442.0
2388,1685097184564,367.0,406.0
2389,1685097184564,373.0,448.0
2390,1685097184564,477.0,452.0
2391,1685097184564,383.0,446.0
2392,1685097184564,523.0,449.0
2393,1685097184564,453.0,442.0
2394,1685097184564,519.0,438.0
2395,1685097184564,473.0,441.0
2396,1685097184564,512.0,422.0
2397,1685097184564,474.0,445.0
2398,1685097184564,473.0,421.0
2399,1685097184564,402.0,402.0
2400,1685097184564,490.0,453.0
2401,1685097184564,360.0,415.0
2402,1685097184564,382.0,415.0
2403,1685097184564,462.0,459.0
2404,1685097184564,349.0,436.0
2405,1685097184564,385.0,410.0
2406,1685097184564,381.0,454.0
2407,1685097184564,467.0,441.0
2408,1685097184564,373.0,435.0
2409,1685097184564,503.0,453.0
2410,1685097184564,453.0,458.0
2411,1685097184564,509.0,431.0
2412,1685097184564,460.0,441.0
2413,1685097184564,500.0,419.0
2414,1685097184564,453.0,427.0
2415,1685097184564,473.0,429.0
2416,1685097184564,417.0,407.0
2417,1685097184564,499.0,450.0
2418,1685097184564,368.0,418.0
2419,1685097184564,402.0,423.0
2420,1685097184564,472.0,457.0
2421,1685097184564,344.0,434.0
2422,1685097184564,377.0,412.0
2423,1685097184564,381.0,451.0
2424,1685097184564,457.0,441.0
2425,1685097184564,352.0,438.0
2426,1685097184564,503.0,448.0
2427,1685097184564,437.0,452.0
2428,1685097184564,507.0,422.0
2429,1685097184564,461.0,440.0
2430,1685097184564,510.0,431.0
2431,1685097184564,480.0,440.0
2432,1685097184564,484.0,420.0
2433,1685097184564,426.0,416.0
2434,1685097184564,505.0,452.0
2435,1685097184564,356.0,407.0
2436,1685097184564,416.0,421.0
2437,1685097184564,451.0,457.0
2438,1685097184564,327.0,428.0
2439,1685097184564,380.0,406.0
2440,1685097184564,366.0,445.0
2441,1685097184564,437.0,443.0
2442,1685097184564,358.0,439.0
2443,1685097184564,499.0,448.0
2444,1685097184564,437.0,443.0
2445,1685097184564,521.0,434.0
2446,1685097184564,472.0,454.0
2447,1685097184564,518.0,431.0
2448,1685097184564,475.0,440.0
2449,1685097184564,495.0,429.0
2450,1685097184564,432.0,408.0
2451,1685097184564,501.0,448.0
2452,1685097184581,347.0,400.0
2453,1685097184581,408.0,428.0
2454,1685097184581,457.0,464.0
2455,1685097184581,310.0,417.0
2456,1685097184616,384.0,408.0
2457,1685097184616,390.0,460.0
2458,1685097184616,427.0,436.0
2459,1685097184649,370.0,441.0
2460,1685097184649,509.0,445.0
2461,1685097184649,434.0,457.0
2462,1685097184649,515.0,436.0
2463,1685097184682,463.0,447.0
2464,1685097184682,515.0,420.0
2465,1685097184682,459.0,432.0
2466,1685097184714,481.0,422.0
2467,1685097184714,430.0,410.0
2468,1685097184714,504.0,462.0
2469,1685097184714,338.0,400.0
2470,1685097184746,424.0,432.0
2471,1685097184746,444.0,461.0
2472,1685097184746,331.0,424.0
2473,1685097184779,396.0,417.0
2474,1685097184779,385.0,459.0
2475,1685097184779,436.0,436.0
2476,1685097184779,355.0,436.0
2477,1685097184814,511.0,454.0
2478,1685097184814,429.0,465.0
2479,1685097184814,503.0,426.0
2480,1685097184849,453.0,450.0
2481,1685097184849,508.0,428.0
2482,1685097184849,460.0,436.0
2483,1685097184849,486.0,409.0
2484,1685097184872,436.0,420.0
2485,1685097184872,500.0,437.0
2486,1685097184872,353.0,404.0
2487,1685097184872,444.0,435.0
2488,1685097184917,447.0,457.0
2489,1685097184917,319.0,418.0
2490,1685097184917,402.0,416.0
2491,1685097184949,377.0,456.0
2492,1685097184949,411.0,433.0
2493,1685097184949,350.0,445.0
2494,1685097184949,497.0,443.0
2495,1685097184982,421.0,460.0
2496,1685097184982,503.0,430.0
2497,1685097184982,467.0,452.0
2498,1685097185014,525.0,429.0
2499,1685097185014,473.0,442.0
2500,1685097185014,496.0,422.0
2501,1685097185014,457.0,420.0
2502,1685097185045,494.0,448.0
2503,1685097185045,352.0,393.0
2504,1685097185045,450.0,426.0
2505,1685097185076,421.0,460.0
2506,1685097185076,301.0,408.0
2507,1685097185076,401.0,425.0
2508,1685097185076,368.0,457.0
2509,1685097185110,407.0,422.0
2510,1685097185110,354.0,437.0
2511,1685097185110,502.0,447.0
2512,1685097185139,422.0,457.0
2513,1685097185139,524.0,440.0
2514,1685097185139,468.0,451.0
2515,1685097185139,528.0,434.0
2516,1685097185171,479.0,442.0
2517,1685097185171,492.0,425.0
2518,1685097185171,456.0,423.0
2519,1685097185171,484.0,440.0
2520,1685097185218,342.0,387.0
2521,1685097185218,456.0,453.0
2522,1685097185218,423.0,448.0
2523,1685097185250,342.0,416.0
2524,1685097185250,423.0,417.0
2525,1685097185250,380.0,455.0
2526,1685097185250,403.0,426.0
2527,1685097185284,358.0,433.0
2528,1685097185284,503.0,451.0
2529,1685097185284,425.0,460.0
2530,1685097185315,511.0,436.0
2531,1685097185315,456.0,451.0
2532,1685097185315,515.0,425.0
2533,1685097185315,466.0,438.0
2534,1685097185347,489.0,412.0
2535,1685097185347,445.0,437.0
2536,1685097185347,486.0,442.0
2537,1685097185382,352.0,395.0
2538,1685097185382,456.0,440.0
2539,1685097185382,409.0,441.0
2540,1685097185382,317.0,408.0
2541,1685097185416,425.0,424.0
2542,1685097185416,386.0,463.0
2543,1685097185416,402.0,408.0
2544,1685097185442,358.0,441.0
2545,1685097185442,500.0,452.0
2546,1685097185442,411.0,454.0
2547,1685097185442,506.0,439.0
2548,1685097185474,453.0,449.0
2549,1685097185474,508.0,424.0
2550,1685097185474,465.0,435.0
2551,1685097185474,494.0,419.0
2552,1685097185519,465.0,432.0
2553,1685097185519,484.0,437.0
2554,1685097185519,364.0,385.0
2555,1685097185550,481.0,455.0
2556,1685097185550,405.0,426.0
2557,1685097185550,317.0,402.0
2558,1685097185550,429.0,424.0
2559,1685097185583,368.0,456.0
2560,1685097185583,383.0,412.0
2561,1685097185583,344.0,430.0
2562,1685097185615,490.0,460.0
2563,1685097185615,410.0,459.0
2564,1685097185615,522.0,435.0
2565,1685097185615,458.0,449.0
2566,1685097185646,515.0,430.0
2567,1685097185646,478.0,449.0
2568,1685097185646,514.0,432.0
2569,1685097185678,471.0,424.0
2570,1685097185678,485.0,434.0
2571,1685097185678,358.0,392.0
2572,1685097185678,479.0,439.0
2573,1685097185716,389.0,440.0
2574,1685097185716,319.0,403.0
2575,1685097185716,419.0,434.0
2576,1685097185750,358.0,455.0
2577,1685097185750,378.0,409.0
2578,1685097185750,358.0,439.0
2579,1685097185750,497.0,458.0
2580,1685097185784,398.0,458.0
2581,1685097185784,528.0,449.0
2582,1685097185784,461.0,449.0
2583,1685097185784,522.0,428.0
2584,1685097185818,473.0,448.0
2585,1685097185818,507.0,419.0
2586,1685097185818,458.0,419.0
2587,1685097185849,474.0,436.0
2588,1685097185849,363.0,385.0
2589,1685097185849,480.0,447.0
2590,1685097185849,386.0,441.0
2591,1685097185886,336.0,413.0
2592,1685097185886,446.0,437.0
2593,1685097185886,371.0,458.0
2594,1685097185917,384.0,408.0
2595,1685097185917,370.0,443.0
2596,1685097185917,494.0,457.0
2597,1685097185917,393.0,445.0
2598,1685097185951,521.0,447.0
2599,1685097185951,454.0,454.0
2600,1685097185951,498.0,411.0
2601,1685097185984,463.0,452.0
2602,1685097185984,497.0,417.0
2603,1685097185984,468.0,436.0
2604,1685097185984,491.0,436.0
2605,1685097186012,375.0,396.0
2606,1685097186012,491.0,451.0
2607,1685097186012,388.0,424.0
2608,1685097186044,353.0,410.0
2609,1685097186044,459.0,444.0
2610,1685097186044,362.0,460.0
2611,1685097186044,380.0,404.0
2612,1685097186075,363.0,441.0
2613,1685097186075,481.0,455.0
2614,1685097186075,389.0,446.0
2615,1685097186075,512.0,441.0
2616,1685097186119,457.0,458.0
2617,1685097186119,508.0,410.0
2618,1685097186119,466.0,452.0
2619,1685097186150,521.0,433.0
2620,1685097186150,474.0,424.0
2621,1685097186150,482.0,434.0
2622,1685097186150,386.0,401.0
2623,1685097186187,495.0,452.0
2624,1685097186187,371.0,421.0
2625,1685097186187,355.0,413.0
2626,1685097186212,457.0,455.0
2627,1685097186212,355.0,448.0
2628,1685097186212,377.0,408.0
2629,1685097186212,363.0,442.0
2630,1685097186250,475.0,453.0
2631,1685097186250,390.0,447.0
2632,1685097186250,527.0,436.0
2633,1685097186282,454.0,465.0
2634,1685097186282,519.0,418.0
2635,1685097186282,467.0,449.0
2636,1685097186282,510.0,421.0
2637,1685097186313,469.0,433.0
2638,1685097186313,471.0,430.0
2639,1685097186313,385.0,399.0
2640,1685097186345,495.0,448.0
2641,1685097186345,367.0,426.0
2642,1685097186345,372.0,416.0
2643,1685097186345,470.0,452.0
2644,1685097186376,341.0,437.0
2645,1685097186376,382.0,412.0
2646,1685097186376,381.0,446.0
2647,1685097186376,468.0,451.0
2648,1685097186419,371.0,443.0
2649,1685097186419,514.0,444.0
2650,1685097186419,455.0,447.0
2651,1685097186451,511.0,426.0
2652,1685097186451,464.0,448.0
2653,1685097186451,509.0,420.0
2654,1685097186451,470.0,435.0
2655,1685097186485,473.0,422.0
2656,1685097186485,413.0,404.0
2657,1685097186485,500.0,459.0
2658,1685097186517,373.0,423.0
2659,1685097186517,386.0,419.0
2660,1685097186517,467.0,460.0
2661,1685097186517,342.0,438.0
2662,1685097186549,374.0,412.0
2663,1685097186549,371.0,453.0
2664,1685097186549,466.0,452.0
2665,1685097186580,364.0,440.0
2666,1685097186580,506.0,433.0
2667,1685097186580,441.0,465.0
2668,1685097186580,518.0,433.0
2669,1685097186613,466.0,448.0
2670,1685097186613,508.0,419.0
2671,1685097186613,473.0,443.0
2672,1685097186643,485.0,430.0
2673,1685097186643,416.0,398.0
2674,1685097186643,488.0,449.0
2675,1685097186643,354.0,420.0
2676,1685097186674,393.0,417.0
2677,1685097186674,465.0,458.0
2678,1685097186674,336.0,433.0
2679,1685097186674,375.0,402.0
2680,1685097186720,377.0,454.0
2681,1685097186720,464.0,439.0
2682,1685097186720,374.0,442.0
2683,1685097186751,510.0,445.0
2684,1685097186751,447.0,461.0
2685,1685097186751,511.0,425.0
2686,1685097186751,460.0,456.0
2687,1685097186787,514.0,426.0
2688,1685097186787,463.0,439.0
2689,1685097186787,481.0,419.0
2690,1685097186818,415.0,408.0
2691,1685097186818,493.0,446.0
2692,1685097186818,346.0,411.0
2693,1685097186818,404.0,422.0
2694,1685097186849,459.0,460.0
2695,1685097186849,338.0,433.0
2696,1685097186849,389.0,405.0
2697,1685097186881,376.0,456.0
2698,1685097186881,447.0,438.0
2699,1685097186881,370.0,446.0
2700,1685097186881,511.0,451.0
2701,1685097186913,433.0,456.0
2702,1685097186913,508.0,431.0
2703,1685097186913,457.0,446.0
2704,1685097186944,513.0,425.0
2705,1685097186944,465.0,441.0
2706,1685097186944,477.0,418.0
2707,1685097186944,431.0,413.0
2708,1685097186975,501.0,455.0
2709,1685097186975,355.0,411.0
2710,1685097186975,423.0,432.0
2711,1685097186975,452.0,453.0
2712,1685097187021,322.0,432.0
2713,1685097187021,390.0,410.0
2714,1685097187021,392.0,457.0
2715,1685097187052,440.0,439.0
2716,1685097187052,350.0,436.0
2717,1685097187052,505.0,443.0
2718,1685097187052,434.0,462.0
2719,1685097187088,508.0,427.0
2720,1685097187088,460.0,450.0
2721,1685097187088,505.0,427.0
2722,1685097187119,467.0,438.0
2723,1685097187119,485.0,419.0
2724,1685097187119,433.0,411.0
2725,1685097187119,500.0,457.0
2726,1685097187151,344.0,400.0
2727,1685097187151,429.0,431.0
2728,1685097187151,450.0,460.0
2729,1685097187182,319.0,419.0
2730,1685097187182,390.0,413.0
2731,1685097187182,383.0,452.0
2732,1685097187182,424.0,428.0
2733,1685097187214,352.0,430.0
2734,1685097187214,505.0,448.0
2735,1685097187214,430.0,450.0
2736,1685097187247,512.0,436.0
2737,1685097187247,471.0,449.0
2738,1685097187247,519.0,428.0
2739,1685097187247,471.0,436.0
2740,1685097187277,488.0,420.0
2741,1685097187277,437.0,424.0
2742,1685097187277,497.0,443.0
2743,1685097187277,340.0,404.0
2744,1685097187321,432.0,430.0
2745,1685097187321,431.0,452.0
2746,1685097187321,312.0,422.0
2747,1685097187352,397.0,412.0
2748,1685097187352,381.0,455.0
2749,1685097187352,425.0,430.0
2750,1685097187352,356.0,433.0
2751,1685097187388,507.0,458.0
2752,1685097187388,427.0,455.0
2753,1685097187388,510.0,433.0
2754,1685097187419,468.0,451.0
2755,1685097187419,513.0,431.0
2756,1685097187419,468.0,443.0
2757,1685097187419,483.0,418.0
2758,1685097187451,437.0,421.0
2759,1685097187451,489.0,449.0
2760,1685097187451,339.0,395.0
2761,1685097187482,440.0,440.0
2762,1685097187482,428.0,455.0
2763,1685097187482,316.0,407.0
2764,1685097187482,410.0,421.0
2765,1685097187514,379.0,451.0
2766,1685097187514,422.0,433.0
2767,1685097187514,359.0,433.0
2768,1685097187546,517.0,456.0
2769,1685097187546,423.0,451.0
2770,1685097187546,505.0,440.0
2771,1685097187546,456.0,446.0
2772,1685097187577,508.0,423.0
2773,1685097187577,466.0,439.0
2774,1685097187577,488.0,414.0
2775,1685097187577,443.0,420.0
2776,1685097187622,487.0,446.0
2777,1685097187622,360.0,399.0
2778,1685097187622,475.0,443.0
2779,1685097187653,428.0,453.0
2780,1685097187653,313.0,412.0
2781,1685097187653,417.0,426.0
2782,1685097187653,380.0,454.0
2783,1685097187688,401.0,433.0
2784,1685097187688,345.0,425.0
2785,1685097187688,503.0,454.0
2786,1685097187720,422.0,463.0
2787,1685097187720,515.0,433.0
2788,1685097187720,458.0,453.0
2789,1685097187720,517.0,427.0
2790,1685097187751,473.0,444.0
2791,1685097187751,502.0,424.0
2792,1685097187751,460.0,430.0
2793,1685097187783,488.0,438.0
2794,1685097187783,358.0,397.0
2795,1685097187783,463.0,436.0
2796,1685097187783,402.0,441.0
2797,1685097187815,307.0,406.0
2798,1685097187815,414.0,425.0
2799,1685097187815,380.0,461.0
2800,1685097187846,390.0,422.0
2801,1685097187846,343.0,432.0
2802,1685097187846,496.0,451.0
2803,1685097187846,413.0,455.0
2804,1685097187880,527.0,441.0
2805,1685097187880,468.0,453.0
2806,1685097187880,520.0,428.0
2807,1685097187880,471.0,440.0
2808,1685097187923,503.0,424.0
2809,1685097187923,460.0,428.0
2810,1685097187923,480.0,435.0
2811,1685097187954,345.0,385.0
2812,1685097187954,467.0,441.0
2813,1685097187954,396.0,447.0
2814,1685097187954,319.0,410.0
2815,1685097187990,427.0,430.0
2816,1685097187990,374.0,456.0
2817,1685097187990,398.0,420.0
2818,1685097188021,368.0,437.0
2819,1685097188021,505.0,451.0
2820,1685097188021,407.0,452.0
2821,1685097188021,516.0,438.0
2822,1685097188052,451.0,439.0
2823,1685097188052,517.0,436.0
2824,1685097188052,464.0,441.0
2825,1685097188084,492.0,420.0
2826,1685097188084,455.0,428.0
2827,1685097188084,472.0,437.0
2828,1685097188084,364.0,391.0
2829,1685097188115,478.0,451.0
2830,1685097188115,396.0,434.0
2831,1685097188115,332.0,407.0
2832,1685097188149,440.0,445.0
2833,1685097188149,376.0,450.0
2834,1685097188149,388.0,412.0
2835,1685097188149,360.0,445.0
2836,1685097188179,501.0,457.0
2837,1685097188179,408.0,450.0
2838,1685097188179,517.0,441.0
2839,1685097188179,454.0,452.0
2840,1685097188223,498.0,418.0
2841,1685097188223,467.0,455.0
2842,1685097188223,506.0,412.0
2843,1685097188254,471.0,438.0
2844,1685097188254,487.0,434.0
2845,1685097188254,368.0,394.0
2846,1685097188254,493.0,454.0
2847,1685097188290,396.0,435.0
2848,1685097188290,332.0,406.0
2849,1685097188290,452.0,451.0
2850,1685097188322,357.0,447.0
2851,1685097188322,376.0,409.0
2852,1685097188322,360.0,434.0
2853,1685097188322,489.0,450.0
2854,1685097188353,399.0,452.0
2855,1685097188353,518.0,445.0
2856,1685097188353,458.0,461.0
2857,1685097188384,514.0,427.0
2858,1685097188384,479.0,450.0
2859,1685097188384,520.0,425.0
2860,1685097188384,464.0,426.0
2861,1685097188417,480.0,434.0
2862,1685097188417,371.0,391.0
2863,1685097188417,487.0,449.0
2864,1685097188457,376.0,425.0
2865,1685097188457,341.0,411.0
2866,1685097188457,453.0,436.0
2867,1685097188457,364.0,466.0
2868,1685097188489,375.0,403.0
2869,1685097188489,354.0,445.0
2870,1685097188489,483.0,448.0
2871,1685097188489,387.0,453.0
2872,1685097188524,521.0,448.0
2873,1685097188524,462.0,452.0
2874,1685097188524,518.0,430.0
2875,1685097188556,472.0,449.0
2876,1685097188556,515.0,414.0
2877,1685097188556,467.0,437.0
2878,1685097188556,472.0,425.0
2879,1685097188590,382.0,397.0
2880,1685097188590,491.0,453.0
2881,1685097188590,372.0,422.0
2882,1685097188623,364.0,420.0
2883,1685097188623,462.0,455.0
2884,1685097188623,357.0,445.0
2885,1685097188623,385.0,417.0
2886,1685097188653,377.0,441.0
2887,1685097188653,485.0,459.0
2888,1685097188653,380.0,440.0
2889,1685097188686,510.0,442.0
2890,1685097188686,454.0,458.0
2891,1685097188686,512.0,429.0
2892,1685097188686,461.0,444.0
2893,1685097188723,505.0,426.0
2894,1685097188723,464.0,432.0
2895,1685097188723,469.0,429.0
2896,1685097188757,398.0,398.0
2897,1685097188757,498.0,463.0
2898,1685097188757,371.0,417.0
2899,1685097188757,368.0,414.0
2900,1685097188790,475.0,458.0
2901,1685097188790,337.0,437.0
2902,1685097188790,382.0,406.0
2903,1685097188790,377.0,448.0
2904,1685097188825,469.0,449.0
2905,1685097188825,381.0,449.0
2906,1685097188825,509.0,444.0
2907,1685097188856,451.0,463.0
2908,1685097188856,510.0,428.0
2909,1685097188857,462.0,445.0
2910,1685097188857,508.0,422.0
2911,1685097188892,470.0,432.0
2912,1685097188892,477.0,426.0
2913,1685097188892,404.0,402.0
2914,1685097188923,497.0,456.0
2915,1685097188923,363.0,422.0
2916,1685097188923,386.0,418.0
2917,1685097188923,474.0,465.0
2918,1685097188954,347.0,437.0
2919,1685097188954,385.0,411.0
2920,1685097188954,373.0,442.0
2921,1685097188986,466.0,450.0
2922,1685097188986,366.0,440.0
2923,1685097188986,504.0,440.0
2924,1685097188986,447.0,457.0
2925,1685097189019,520.0,441.0
2926,1685097189019,462.0,438.0
2927,1685097189019,512.0,425.0
2928,1685097189051,471.0,439.0
2929,1685097189051,482.0,424.0
2930,1685097189051,410.0,402.0
2931,1685097189051,501.0,452.0
2932,1685097189082,359.0,415.0
2933,1685097189082,383.0,413.0
2934,1685097189082,455.0,463.0
2935,1685097189082,347.0,436.0
2936,1685097189124,379.0,406.0
2937,1685097189124,374.0,453.0
2938,1685097189124,452.0,437.0
2939,1685097189155,352.0,441.0
2940,1685097189155,513.0,442.0
2941,1685097189155,450.0,460.0
2942,1685097189155,518.0,431.0
2943,1685097189194,463.0,448.0
2944,1685097189194,515.0,424.0
2945,1685097189194,476.0,428.0
2946,1685097189224,478.0,423.0
2947,1685097189224,418.0,410.0
2948,1685097189224,493.0,455.0
2949,1685097189224,348.0,399.0
2950,1685097189258,403.0,421.0
2951,1685097189258,460.0,457.0
2952,1685097189258,328.0,438.0
2953,1685097189288,387.0,411.0
2954,1685097189288,388.0,450.0
2955,1685097189288,454.0,431.0
2956,1685097189288,383.0,447.0
2957,1685097189320,515.0,448.0
2958,1685097189320,435.0,450.0
2959,1685097189320,509.0,430.0
2960,1685097189353,466.0,448.0
2961,1685097189353,505.0,419.0
2962,1685097189353,465.0,433.0
2963,1685097189353,475.0,425.0
2964,1685097189383,416.0,404.0
2965,1685097189383,499.0,456.0
2966,1685097189383,352.0,404.0
2967,1685097189383,428.0,437.0
2968,1685097189427,472.0,462.0
2969,1685097189427,326.0,425.0
2970,1685097189427,398.0,415.0
2971,1685097189455,390.0,454.0
2972,1685097189455,443.0,446.0
2973,1685097189455,357.0,439.0
2974,1685097189455,497.0,436.0
2975,1685097189497,432.0,457.0
2976,1685097189497,501.0,429.0
2977,1685097189497,454.0,448.0
2978,1685097189524,502.0,417.0
2979,1685097189524,461.0,440.0
2980,1685097189524,480.0,423.0
2981,1685097189524,438.0,415.0
2982,1685097189558,501.0,443.0
2983,1685097189558,356.0,405.0
2984,1685097189558,426.0,425.0
2985,1685097189592,451.0,462.0
2986,1685097189592,323.0,418.0
2987,1685097189592,385.0,411.0
2988,1685097189592,372.0,450.0
2989,1685097189624,428.0,432.0
2990,1685097189624,349.0,436.0
2991,1685097189624,498.0,454.0
2992,1685097189655,429.0,453.0
2993,1685097189655,512.0,435.0
2994,1685097189655,466.0,457.0
2995,1685097189655,523.0,421.0
2996,1685097189686,477.0,446.0
2997,1685097189686,494.0,422.0
2998,1685097189686,447.0,416.0
2999,1685097189686,494.0,446.0
3000,1685097189725,340.0,402.0
3001,1685097189725,427.0,430.0
3002,1685097189725,424.0,460.0
3003,1685097189759,322.0,420.0
3004,1685097189759,390.0,415.0
3005,1685097189759,372.0,451.0
3006,1685097189759,425.0,431.0
3007,1685097189799,353.0,432.0
3008,1685097189799,515.0,456.0
3009,1685097189799,439.0,461.0
3010,1685097189825,506.0,418.0
3011,1685097189825,473.0,447.0
3012,1685097189825,519.0,430.0
3013,1685097189825,465.0,443.0
3014,1685097189845,485.0,423.0
3015,1685097189845,430.0,411.0
3016,1685097189845,484.0,449.0
3017,1685097189893,336.0,392.0
3018,1685097189893,439.0,431.0
3019,1685097189893,432.0,448.0
3020,1685097189893,310.0,410.0
3021,1685097189925,407.0,422.0
3022,1685097189925,388.0,463.0
3023,1685097189925,433.0,436.0
3024,1685097189955,366.0,436.0
3025,1685097189955,506.0,451.0
3026,1685097189955,433.0,462.0
3027,1685097189955,512.0,430.0
3028,1685097189993,456.0,446.0
3029,1685097189993,508.0,433.0
3030,1685097189993,459.0,437.0
3031,1685097189993,479.0,414.0
3032,1685097190027,439.0,419.0
3033,1685097190027,490.0,443.0
3034,1685097190027,347.0,399.0
3035,1685097190058,460.0,438.0
3036,1685097190058,433.0,451.0
3037,1685097190058,315.0,418.0
3038,1685097190058,421.0,416.0
3039,1685097190094,386.0,464.0
3040,1685097190094,414.0,421.0
3041,1685097190094,355.0,433.0
3042,1685097190125,498.0,448.0
3043,1685097190125,425.0,456.0
3044,1685097190125,505.0,436.0
3045,1685097190125,452.0,449.0
3046,1685097190157,517.0,423.0
3047,1685097190157,466.0,438.0
3048,1685097190157,498.0,413.0
3049,1685097190189,453.0,428.0
3050,1685097190189,492.0,435.0
3051,1685097190189,356.0,392.0
3052,1685097190189,459.0,441.0
3053,1685097190226,422.0,451.0
3054,1685097190226,311.0,407.0
3055,1685097190226,410.0,422.0
3056,1685097190259,371.0,460.0
3057,1685097190259,396.0,416.0
3058,1685097190259,347.0,435.0
3059,1685097190259,493.0,460.0
3060,1685097190293,420.0,459.0
3061,1685097190293,513.0,439.0
3062,1685097190293,454.0,443.0
3063,1685097190293,533.0,431.0
3064,1685097190327,473.0,445.0
3065,1685097190327,506.0,428.0
3066,1685097190327,466.0,432.0
3067,1685097190358,484.0,433.0
3068,1685097190358,351.0,406.0
3069,1685097190358,455.0,435.0
3070,1685097190358,399.0,439.0
3071,1685097190394,311.0,403.0
3072,1685097190394,413.0,431.0
3073,1685097190394,378.0,462.0
3074,1685097190426,391.0,413.0
3075,1685097190426,358.0,434.0
3076,1685097190426,513.0,453.0
3077,1685097190426,427.0,460.0
3078,1685097190461,525.0,436.0
3079,1685097190461,456.0,452.0
3080,1685097190461,517.0,440.0
3081,1685097190489,467.0,436.0
3082,1685097190489,495.0,423.0
3083,1685097190489,445.0,415.0
3084,1685097190489,470.0,436.0
3085,1685097190526,352.0,390.0
3086,1685097190526,464.0,444.0
3087,1685097190526,400.0,433.0
3088,1685097190560,324.0,413.0
3089,1685097190560,434.0,433.0
3090,1685097190560,380.0,449.0
3091,1685097190560,409.0,430.0
3092,1685097190585,370.0,436.0
3093,1685097190585,504.0,457.0
3094,1685097190585,419.0,457.0
3095,1685097190585,515.0,441.0
3096,1685097190629,450.0,444.0
3097,1685097190629,505.0,423.0
3098,1685097190629,454.0,434.0
3099,1685097190660,487.0,414.0
3100,1685097190660,450.0,429.0
3101,1685097190660,477.0,430.0
3102,1685097190660,365.0,404.0
3103,1685097190696,484.0,442.0
3104,1685097190696,410.0,447.0
3105,1685097190696,334.0,408.0
3106,1685097190728,442.0,440.0
3107,1685097190728,370.0,459.0
3108,1685097190728,398.0,415.0
3109,1685097190728,360.0,443.0
3110,1685097190761,484.0,442.0
3111,1685097190761,395.0,455.0
3112,1685097190761,517.0,444.0
3113,1685097190794,448.0,450.0
3114,1685097190794,510.0,419.0
3115,1685097190794,471.0,451.0
3116,1685097190794,509.0,416.0
3117,1685097190828,477.0,435.0
3118,1685097190828,494.0,441.0
3119,1685097190828,369.0,386.0
3120,1685097190854,485.0,448.0
3121,1685097190854,385.0,431.0
3122,1685097190854,334.0,408.0
3123,1685097190854,439.0,448.0
3124,1685097190886,359.0,438.0
3125,1685097190886,368.0,409.0
3126,1685097190886,351.0,436.0
3127,1685097190886,494.0,453.0
3128,1685097190929,396.0,455.0
3129,1685097190929,531.0,446.0
3130,1685097190929,468.0,462.0
3131,1685097190961,529.0,432.0
3132,1685097190961,487.0,443.0
3133,1685097190961,524.0,429.0
3134,1685097190961,470.0,429.0
3135,1685097190995,477.0,438.0
3136,1685097190995,366.0,388.0
3137,1685097190995,473.0,448.0
3138,1685097191029,365.0,422.0
3139,1685097191029,339.0,406.0
3140,1685097191029,450.0,448.0
3141,1685097191029,350.0,441.0
3142,1685097191058,387.0,414.0
3143,1685097191058,375.0,453.0
3144,1685097191058,504.0,460.0
3145,1685097191089,411.0,453.0
3146,1685097191089,527.0,446.0
3147,1685097191089,459.0,461.0
3148,1685097191089,513.0,421.0
3149,1685097191121,466.0,440.0
3150,1685097191121,497.0,427.0
3151,1685097191121,452.0,417.0
3152,1685097191162,465.0,430.0
3153,1685097191162,354.0,394.0
3154,1685097191162,486.0,453.0
3155,1685097191162,381.0,432.0
3156,1685097191184,356.0,412.0
3157,1685097191184,465.0,457.0
3158,1685097191184,365.0,459.0
3159,1685097191184,398.0,417.0
3160,1685097191231,385.0,448.0
3161,1685097191231,489.0,453.0
3162,1685097191231,393.0,462.0
3163,1685097191262,509.0,437.0
3164,1685097191262,449.0,453.0
3165,1685097191262,495.0,421.0
3166,1685097191262,447.0,436.0
3167,1685097191299,499.0,416.0
3168,1685097191299,466.0,433.0
3169,1685097191299,476.0,429.0
3170,1685097191322,396.0,402.0
3171,1685097191322,507.0,453.0
3172,1685097191322,392.0,426.0
3173,1685097191322,365.0,412.0
3174,1685097191362,463.0,454.0
3175,1685097191362,356.0,444.0
3176,1685097191362,375.0,406.0
3177,1685097191393,368.0,446.0
3178,1685097191393,473.0,448.0
3179,1685097191393,369.0,442.0
3180,1685097191393,513.0,451.0
3181,1685097191425,454.0,465.0
3182,1685097191425,510.0,429.0
3183,1685097191425,482.0,457.0
3184,1685097191457,524.0,418.0
3185,1685097191457,476.0,442.0
3186,1685097191457,486.0,432.0
3187,1685097191457,395.0,391.0
3188,1685097191488,489.0,452.0
3189,1685097191488,360.0,410.0
3190,1685097191488,361.0,416.0
3191,1685097191488,458.0,451.0
3192,1685097191531,342.0,442.0
3193,1685097191531,361.0,410.0
3194,1685097191531,373.0,443.0
3195,1685097191561,473.0,453.0
3196,1685097191561,377.0,443.0
3197,1685097191561,521.0,444.0
3198,1685097191561,459.0,465.0
3199,1685097191596,521.0,437.0
3200,1685097191596,477.0,453.0
3201,1685097191596,512.0,425.0
3202,1685097191630,467.0,434.0
3203,1685097191630,471.0,427.0
3204,1685097191630,397.0,406.0
3205,1685097191630,485.0,452.0
3206,1685097191659,356.0,418.0
3207,1685097191659,379.0,414.0
3208,1685097191659,469.0,467.0
3209,1685097191690,354.0,441.0
3210,1685097191690,382.0,405.0
3211,1685097191690,387.0,449.0
3212,1685097191690,473.0,458.0
3213,1685097191724,400.0,462.0
3214,1685097191724,508.0,444.0
3215,1685097191724,442.0,458.0
3216,1685097191754,508.0,427.0
3217,1685097191754,448.0,444.0
3218,1685097191754,497.0,406.0
3219,1685097191754,455.0,432.0
3220,1685097191796,473.0,429.0
3221,1685097191796,409.0,409.0
3222,1685097191796,502.0,457.0
3223,1685097191796,371.0,415.0
3224,1685097191830,395.0,408.0
3225,1685097191830,475.0,469.0
3226,1685097191830,348.0,435.0
3227,1685097191861,385.0,413.0
3228,1685097191861,391.0,457.0
3229,1685097191861,449.0,438.0
3230,1685097191861,381.0,453.0
3231,1685097191897,498.0,441.0
3232,1685097191897,433.0,455.0
3233,1685097191897,505.0,421.0
3234,1685097191929,449.0,445.0
3235,1685097191929,501.0,414.0
3236,1685097191929,462.0,437.0
3237,1685097191929,474.0,433.0
3238,1685097191961,419.0,405.0
3239,1685097191961,508.0,455.0
3240,1685097191961,366.0,417.0
3241,1685097191996,406.0,420.0
3242,1685097191996,468.0,464.0
3243,1685097191996,333.0,427.0
3244,1685097191996,382.0,408.0
3245,1685097192026,374.0,456.0
3246,1685097192026,446.0,440.0
3247,1685097192026,369.0,438.0
3248,1685097192056,502.0,445.0
3249,1685097192056,447.0,465.0
3250,1685097192056,520.0,431.0
3251,1685097192056,472.0,455.0
3252,1685097192096,524.0,428.0
3253,1685097192096,469.0,436.0
3254,1685097192096,494.0,432.0
3255,1685097192096,421.0,412.0
3256,1685097192131,496.0,454.0
3257,1685097192131,347.0,408.0
3258,1685097192131,403.0,425.0
3259,1685097192162,452.0,458.0
3260,1685097192162,325.0,427.0
3261,1685097192162,382.0,415.0
3262,1685097192162,381.0,446.0
3263,1685097192199,437.0,444.0
3264,1685097192199,360.0,434.0
3265,1685097192199,506.0,448.0
3266,1685097192230,443.0,461.0
3267,1685097192230,520.0,442.0
3268,1685097192230,462.0,449.0
3269,1685097192230,521.0,432.0
3270,1685097192262,468.0,436.0
3271,1685097192262,479.0,424.0
3272,1685097192262,424.0,407.0
3273,1685097192293,486.0,453.0
3274,1685097192293,345.0,396.0
3275,1685097192293,417.0,426.0
3276,1685097192293,456.0,460.0
3277,1685097192325,321.0,427.0
3278,1685097192325,393.0,410.0
3279,1685097192325,387.0,456.0
3280,1685097192356,447.0,432.0
3281,1685097192356,384.0,446.0
3282,1685097192356,510.0,441.0
3283,1685097192356,433.0,458.0
3284,1685097192387,505.0,431.0
3285,1685097192387,455.0,448.0
3286,1685097192387,504.0,418.0
3287,1685097192387,456.0,440.0
3288,1685097192431,480.0,420.0
3289,1685097192431,422.0,420.0
3290,1685097192431,495.0,458.0
3291,1685097192462,347.0,399.0
3292,1685097192462,430.0,429.0
3293,1685097192462,460.0,464.0
3294,1685097192462,321.0,419.0
3295,1685097192498,397.0,417.0
3296,1685097192498,395.0,459.0
3297,1685097192498,424.0,429.0
3298,1685097192530,360.0,437.0
3299,1685097192530,498.0,454.0
3300,1685097192530,429.0,457.0
3301,1685097192530,503.0,432.0
3302,1685097192561,453.0,451.0
3303,1685097192561,514.0,425.0
3304,1685097192561,471.0,442.0
3305,1685097192599,481.0,420.0
3306,1685097192599,436.0,422.0
3307,1685097192599,498.0,453.0
3308,1685097192599,353.0,394.0
3309,1685097192630,437.0,435.0
3310,1685097192630,444.0,455.0
3311,1685097192630,321.0,422.0
3312,1685097192656,391.0,419.0
3313,1685097192656,380.0,452.0
3314,1685097192656,417.0,426.0
3315,1685097192656,357.0,434.0
3316,1685097192687,501.0,458.0
3317,1685097192687,430.0,457.0
3318,1685097192687,517.0,432.0
3319,1685097192687,467.0,452.0
3320,1685097192732,523.0,426.0
3321,1685097192732,476.0,446.0
3322,1685097192732,500.0,433.0
3323,1685097192765,434.0,413.0
3324,1685097192765,498.0,450.0
3325,1685097192765,342.0,379.0
3326,1685097192765,434.0,438.0
3327,1685097192800,428.0,449.0
3328,1685097192800,312.0,409.0
3329,1685097192800,395.0,421.0
3330,1685097192831,379.0,456.0
3331,1685097192831,415.0,422.0
3332,1685097192831,355.0,432.0
3333,1685097192831,502.0,450.0
3334,1685097192863,429.0,467.0
3335,1685097192863,516.0,437.0
3336,1685097192863,467.0,453.0
3337,1685097192896,514.0,430.0
3338,1685097192896,465.0,437.0
3339,1685097192896,490.0,420.0
3340,1685097192896,439.0,417.0
3341,1685097192926,485.0,445.0
3342,1685097192926,348.0,392.0
3343,1685097192926,443.0,436.0
3344,1685097192965,430.0,453.0
3345,1685097192965,316.0,413.0
3346,1685097192965,412.0,422.0
3347,1685097192965,384.0,449.0
3348,1685097192998,415.0,429.0
3349,1685097192998,369.0,451.0
3350,1685097192998,513.0,446.0
3351,1685097192998,423.0,463.0
3352,1685097193033,507.0,436.0
3353,1685097193033,449.0,442.0
3354,1685097193033,507.0,425.0
3355,1685097193066,472.0,450.0
3356,1685097193066,488.0,418.0
3357,1685097193066,445.0,427.0
3358,1685097193066,484.0,443.0
3359,1685097193099,348.0,401.0
3360,1685097193099,461.0,436.0
3361,1685097193099,428.0,463.0
3362,1685097193132,314.0,410.0
3363,1685097193132,421.0,424.0
3364,1685097193132,383.0,456.0
3365,1685097193132,411.0,440.0
3366,1685097193163,356.0,436.0
3367,1685097193163,504.0,448.0
3368,1685097193163,424.0,457.0
3369,1685097193199,508.0,434.0
3370,1685097193199,454.0,441.0
3371,1685097193199,517.0,425.0
3372,1685097193199,468.0,443.0
3373,1685097193233,492.0,433.0
3374,1685097193233,450.0,414.0
3375,1685097193233,487.0,446.0
3376,1685097193266,360.0,390.0
3377,1685097193266,454.0,440.0
3378,1685097193266,419.0,447.0
3379,1685097193266,311.0,407.0
3380,1685097193288,418.0,428.0
3381,1685097193288,373.0,455.0
3382,1685097193288,396.0,422.0
3383,1685097193288,357.0,434.0
3384,1685097193334,496.0,442.0
3385,1685097193334,418.0,458.0
3386,1685097193334,517.0,440.0
3387,1685097193365,461.0,454.0
3388,1685097193365,529.0,431.0
3389,1685097193365,468.0,440.0
3390,1685097193365,504.0,426.0
3391,1685097193400,455.0,423.0
3392,1685097193400,483.0,438.0
3393,1685097193400,355.0,390.0
3394,1685097193432,459.0,433.0
3395,1685097193432,413.0,448.0
3396,1685097193432,307.0,409.0
3397,1685097193432,418.0,428.0
3398,1685097193463,376.0,457.0
3399,1685097193463,391.0,419.0
3400,1685097193463,352.0,438.0
3401,1685097193494,496.0,443.0
3402,1685097193494,419.0,464.0
3403,1685097193494,523.0,429.0
3404,1685097193494,460.0,454.0
3405,1685097193527,529.0,422.0
3406,1685097193527,467.0,441.0
3407,1685097193527,502.0,425.0
3408,1685097193558,455.0,425.0
3409,1685097193558,478.0,443.0
3410,1685097193558,354.0,380.0
3411,1685097193558,460.0,453.0
3412,1685097193589,400.0,432.0
3413,1685097193589,317.0,401.0
3414,1685097193589,429.0,434.0
3415,1685097193589,372.0,442.0
3416,1685097193634,402.0,429.0
3417,1685097193634,377.0,444.0
3418,1685097193634,506.0,457.0
3419,1685097193667,417.0,462.0
3420,1685097193667,515.0,443.0
3421,1685097193667,455.0,445.0
3422,1685097193667,515.0,430.0
3423,1685097193701,458.0,438.0
3424,1685097193701,498.0,413.0
3425,1685097193701,456.0,421.0
3426,1685097193732,473.0,437.0
3427,1685097193732,359.0,397.0
3428,1685097193732,472.0,445.0
3429,1685097193732,406.0,438.0
3430,1685097193764,327.0,404.0
3431,1685097193764,442.0,435.0
3432,1685097193764,376.0,455.0
3433,1685097193795,386.0,412.0
3434,1685097193795,368.0,445.0
3435,1685097193795,494.0,447.0
3436,1685097193795,408.0,452.0
3437,1685097193834,515.0,445.0
3438,1685097193834,450.0,446.0
3439,1685097193834,512.0,426.0
3440,1685097193867,468.0,441.0
3441,1685097193867,503.0,421.0
3442,1685097193867,463.0,441.0
3443,1685097193867,489.0,442.0
3444,1685097193889,372.0,387.0
3445,1685097193889,485.0,451.0
3446,1685097193889,394.0,438.0
3447,1685097193889,332.0,410.0
3448,1685097193936,430.0,435.0
3449,1685097193936,373.0,459.0
3450,1685097193936,374.0,412.0
3451,1685097193967,349.0,437.0
3452,1685097193967,492.0,457.0
3453,1685097193967,403.0,449.0
3454,1685097193967,523.0,452.0
3455,1685097194001,456.0,456.0
3456,1685097194001,515.0,426.0
3457,1685097194001,475.0,438.0
3458,1685097194034,523.0,427.0
3459,1685097194034,464.0,433.0
3460,1685097194034,481.0,436.0
3461,1685097194034,372.0,396.0
3462,1685097194068,485.0,443.0
3463,1685097194068,380.0,428.0
3464,1685097194068,327.0,402.0
3465,1685097194096,437.0,442.0
3466,1685097194096,361.0,448.0
3467,1685097194096,381.0,412.0
3468,1685097194096,368.0,446.0
3469,1685097194128,487.0,451.0
3470,1685097194128,402.0,459.0
3471,1685097194128,524.0,433.0
3472,1685097194168,460.0,469.0
3473,1685097194168,517.0,427.0
3474,1685097194168,469.0,447.0
3475,1685097194168,501.0,428.0
3476,1685097194201,464.0,436.0
3477,1685097194201,473.0,426.0
3478,1685097194201,369.0,396.0
3479,1685097194201,486.0,448.0
3480,1685097194235,381.0,428.0
3481,1685097194235,353.0,411.0
3482,1685097194235,448.0,436.0
3483,1685097194267,370.0,447.0
3484,1685097194267,389.0,418.0
3485,1685097194267,376.0,439.0
3486,1685097194267,499.0,455.0
3487,1685097194303,395.0,449.0
3488,1685097194303,518.0,437.0
3489,1685097194303,454.0,458.0
3490,1685097194335,507.0,424.0
3491,1685097194335,458.0,447.0
3492,1685097194335,502.0,417.0
3493,1685097194335,462.0,441.0
3494,1685097194369,478.0,427.0
3495,1685097194369,377.0,389.0
3496,1685097194369,496.0,452.0
3497,1685097194398,386.0,430.0
3498,1685097194398,364.0,401.0
3499,1685097194398,456.0,452.0
3500,1685097194398,367.0,444.0
3501,1685097194435,372.0,409.0
3502,1685097194435,360.0,448.0
3503,1685097194435,481.0,452.0
3504,1685097194462,383.0,456.0
3505,1685097194462,513.0,431.0
3506,1685097194462,451.0,459.0
3507,1685097194462,505.0,425.0
3508,1685097194502,469.0,442.0
3509,1685097194502,515.0,424.0
3510,1685097194502,470.0,438.0
3511,1685097194502,486.0,428.0
3512,1685097194536,388.0,403.0
3513,1685097194536,500.0,446.0
3514,1685097194536,372.0,430.0
3515,1685097194567,362.0,416.0
3516,1685097194567,454.0,456.0
3517,1685097194567,346.0,439.0
3518,1685097194567,375.0,407.0
3519,1685097194603,369.0,439.0
3520,1685097194603,473.0,453.0
3521,1685097194603,389.0,453.0
3522,1685097194635,520.0,448.0
3523,1685097194635,457.0,451.0
3524,1685097194635,514.0,436.0
3525,1685097194635,461.0,448.0
3526,1685097194666,522.0,406.0
3527,1685097194666,469.0,446.0
3528,1685097194666,480.0,423.0
3529,1685097194698,387.0,394.0
3530,1685097194698,495.0,452.0
3531,1685097194698,369.0,411.0
3532,1685097194698,370.0,419.0
3533,1685097194729,475.0,458.0
3534,1685097194729,357.0,438.0
3535,1685097194729,379.0,403.0
3536,1685097194769,385.0,464.0
3537,1685097194769,478.0,445.0
3538,1685097194769,389.0,450.0
3539,1685097194769,519.0,447.0
3540,1685097194799,456.0,460.0
3541,1685097194799,507.0,449.0
3542,1685097194799,454.0,442.0
3543,1685097194799,503.0,427.0
3544,1685097194837,464.0,443.0
3545,1685097194837,463.0,441.0
3546,1685097194837,392.0,393.0
3547,1685097194868,484.0,450.0
3548,1685097194868,368.0,432.0
3549,1685097194868,380.0,416.0
3550,1685097194868,474.0,457.0
3551,1685097194904,349.0,450.0
3552,1685097194904,391.0,415.0
3553,1685097194904,385.0,454.0
3554,1685097194936,472.0,452.0
3555,1685097194936,367.0,441.0
3556,1685097194936,504.0,436.0
3557,1685097194936,447.0,456.0
3558,1685097194969,512.0,425.0
3559,1685097194969,464.0,451.0
3560,1685097194969,513.0,425.0
3561,1685097194999,466.0,431.0
3562,1685097194999,479.0,427.0
3563,1685097194999,404.0,402.0
3564,1685097194999,498.0,457.0
3565,1685097195031,362.0,428.0
3566,1685097195031,382.0,412.0
3567,1685097195031,470.0,465.0
3568,1685097195062,339.0,438.0
3569,1685097195062,373.0,403.0
3570,1685097195062,370.0,450.0
3571,1685097195062,468.0,448.0
3572,1685097195094,370.0,450.0
3573,1685097195094,502.0,442.0
3574,1685097195094,448.0,450.0
3575,1685097195094,516.0,415.0
3576,1685097195137,466.0,450.0
3577,1685097195137,519.0,425.0
3578,1685097195137,465.0,427.0
3579,1685097195170,479.0,429.0
3580,1685097195170,411.0,404.0
3581,1685097195170,496.0,458.0
3582,1685097195170,369.0,412.0
3583,1685097195204,385.0,425.0
3584,1685097195204,466.0,472.0
3585,1685097195204,335.0,434.0
3586,1685097195236,380.0,409.0
3587,1685097195236,376.0,455.0
3588,1685097195236,454.0,437.0
3589,1685097195236,386.0,452.0
3590,1685097195271,517.0,440.0
3591,1685097195271,462.0,457.0
3592,1685097195271,519.0,433.0
3593,1685097195299,461.0,451.0
3594,1685097195299,513.0,423.0
3595,1685097195299,461.0,433.0
3596,1685097195299,472.0,435.0
3597,1685097195331,412.0,403.0
3598,1685097195331,498.0,459.0
3599,1685097195331,357.0,414.0
3600,1685097195370,402.0,423.0
3601,1685097195370,473.0,466.0
3602,1685097195370,337.0,432.0
3603,1685097195370,386.0,420.0
3604,1685097195402,377.0,453.0
3605,1685097195402,453.0,437.0
3606,1685097195402,381.0,449.0
3607,1685097195402,507.0,441.0
3608,1685097195437,438.0,450.0
3609,1685097195437,512.0,428.0
3610,1685097195437,463.0,452.0
3611,1685097195469,518.0,421.0
3612,1685097195469,472.0,432.0
3613,1685097195469,472.0,419.0
3614,1685097195469,418.0,408.0
3615,1685097195505,502.0,456.0
3616,1685097195505,357.0,408.0
3617,1685097195505,413.0,424.0
3618,1685097195537,463.0,463.0
3619,1685097195537,322.0,425.0
3620,1685097195537,386.0,412.0
3621,1685097195537,386.0,447.0
3622,1685097195568,439.0,446.0
3623,1685097195568,356.0,435.0
3624,1685097195568,503.0,446.0
3625,1685097195599,442.0,454.0
3626,1685097195599,518.0,431.0
3627,1685097195599,468.0,444.0
3628,1685097195599,519.0,425.0
3629,1685097195631,469.0,441.0
3630,1685097195631,488.0,423.0
3631,1685097195631,420.0,413.0
3632,1685097195664,494.0,454.0
3633,1685097195664,342.0,406.0
3634,1685097195664,406.0,428.0
3635,1685097195664,450.0,467.0
3636,1685097195706,326.0,420.0
3637,1685097195706,379.0,414.0
3638,1685097195706,392.0,447.0
3639,1685097195706,446.0,445.0
3640,1685097195739,367.0,441.0
3641,1685097195739,511.0,453.0
3642,1685097195739,431.0,454.0
3643,1685097195772,517.0,431.0
3644,1685097195772,463.0,448.0
3645,1685097195772,514.0,437.0
3646,1685097195772,458.0,426.0
3647,1685097195805,484.0,425.0
3648,1685097195805,421.0,414.0
3649,1685097195805,497.0,451.0
3650,1685097195836,350.0,406.0
3651,1685097195836,417.0,421.0
3652,1685097195836,457.0,458.0
3653,1685097195836,326.0,424.0
3654,1685097195871,389.0,414.0
3655,1685097195871,377.0,451.0
3656,1685097195871,439.0,434.0
3657,1685097195899,356.0,433.0
3658,1685097195899,505.0,452.0
3659,1685097195899,429.0,456.0
3660,1685097195899,502.0,429.0
3661,1685097195931,455.0,448.0
3662,1685097195931,516.0,422.0
3663,1685097195931,469.0,438.0
3664,1685097195971,483.0,418.0
3665,1685097195971,429.0,414.0
3666,1685097195971,499.0,454.0
3667,1685097195971,353.0,403.0
3668,1685097196006,428.0,429.0
3669,1685097196006,450.0,461.0
3670,1685097196006,325.0,423.0
3671,1685097196006,389.0,407.0
3672,1685097196039,384.0,454.0
3673,1685097196039,427.0,438.0
3674,1685097196039,358.0,437.0
3675,1685097196071,505.0,451.0
3676,1685097196071,430.0,459.0
3677,1685097196071,512.0,431.0
3678,1685097196071,469.0,448.0
3679,1685097196107,511.0,412.0
3680,1685097196107,474.0,452.0
3681,1685097196107,486.0,419.0
3682,1685097196138,441.0,415.0
3683,1685097196138,491.0,449.0
3684,1685097196138,345.0,399.0
3685,1685097196138,431.0,431.0
3686,1685097196170,441.0,457.0
3687,1685097196170,305.0,413.0
3688,1685097196170,394.0,416.0
3689,1685097196202,389.0,458.0
3690,1685097196202,420.0,423.0
3691,1685097196202,353.0,438.0
3692,1685097196202,505.0,452.0
3693,1685097196234,431.0,457.0
3694,1685097196234,519.0,437.0
3695,1685097196234,470.0,447.0
3696,1685097196265,526.0,436.0
3697,1685097196265,468.0,430.0
3698,1685097196265,489.0,428.0
3699,1685097196265,435.0,419.0
3700,1685097196306,491.0,448.0
3701,1685097196306,337.0,397.0
3702,1685097196306,420.0,431.0
3703,1685097196306,435.0,454.0
3704,1685097196339,311.0,418.0
3705,1685097196339,410.0,415.0
3706,1685097196339,399.0,467.0
3707,1685097196371,423.0,423.0
3708,1685097196371,369.0,434.0
3709,1685097196371,511.0,453.0
3710,1685097196371,429.0,462.0
3711,1685097196406,519.0,438.0
3712,1685097196406,461.0,443.0
3713,1685097196406,514.0,425.0
3714,1685097196438,458.0,438.0
3715,1685097196438,486.0,430.0
3716,1685097196438,436.0,416.0
3717,1685097196438,484.0,444.0
3718,1685097196473,347.0,390.0
3719,1685097196473,451.0,442.0
3720,1685097196473,450.0,463.0
3721,1685097196506,315.0,411.0
3722,1685097196506,415.0,421.0
3723,1685097196506,384.0,455.0
3724,1685097196506,416.0,424.0
3725,1685097196540,365.0,445.0
3726,1685097196540,496.0,448.0
3727,1685097196540,422.0,457.0
3728,1685097196574,496.0,433.0
3729,1685097196574,452.0,456.0
3730,1685097196574,519.0,424.0
3731,1685097196574,465.0,440.0
3732,1685097196596,496.0,417.0
3733,1685097196596,446.0,431.0
3734,1685097196596,503.0,449.0
3735,1685097196596,360.0,392.0
3736,1685097196648,457.0,441.0
3737,1685097196648,433.0,450.0
3738,1685097196648,295.0,410.0
3739,1685097196663,408.0,426.0
3740,1685097196663,374.0,455.0
3741,1685097196663,401.0,421.0
3742,1685097196663,349.0,440.0
3743,1685097196708,503.0,447.0
3744,1685097196708,428.0,461.0
3745,1685097196708,519.0,432.0
3746,1685097196739,467.0,447.0
3747,1685097196739,524.0,428.0
3748,1685097196739,480.0,446.0
3749,1685097196739,505.0,426.0
3750,1685097196771,451.0,423.0
3751,1685097196771,481.0,437.0
3752,1685097196771,341.0,402.0
3753,1685097196807,435.0,433.0
3754,1685097196807,417.0,449.0
3755,1685097196807,295.0,402.0
3756,1685097196807,409.0,417.0
3757,1685097196836,381.0,464.0
3758,1685097196836,397.0,407.0
3759,1685097196836,362.0,445.0
3760,1685097196866,517.0,451.0
3761,1685097196866,424.0,457.0
3762,1685097196866,524.0,436.0
3763,1685097196866,475.0,459.0
3764,1685097196897,516.0,428.0
3765,1685097196897,463.0,438.0
3766,1685097196897,487.0,422.0
3767,1685097196897,438.0,419.0
3768,1685097196941,478.0,448.0
3769,1685097196941,335.0,389.0
3770,1685097196941,453.0,440.0
3771,1685097196974,431.0,451.0
3772,1685097196974,312.0,413.0
3773,1685097196974,418.0,425.0
3774,1685097196974,379.0,455.0
3775,1685097197008,415.0,427.0
3776,1685097197008,366.0,442.0
3777,1685097197008,504.0,454.0
3778,1685097197041,411.0,459.0
3779,1685097197041,516.0,428.0
3780,1685097197041,451.0,452.0
