Sample Number (10000 samples per second),UNIX Timestamp (Milliseconds since 1970-01-01),C1 (),C2 ()
0,1685095159569,345.0,460.0
1,1685095159569,329.0,442.0
2,1685095159569,334.0,426.0
3,1685095159569,368.0,430.0
4,1685095159569,400.0,437.0
5,1685095159569,408.0,432.0
6,1685095159569,393.0,415.0
7,1685095159569,491.0,414.0
8,1685095159569,475.0,463.0
9,1685095159569,475.0,430.0
10,1685095159569,426.0,382.0
11,1685095159569,544.0,471.0
12,1685095159569,405.0,383.0
13,1685095159569,429.0,413.0
14,1685095159569,488.0,432.0
15,1685095159569,386.0,425.0
16,1685095159569,378.0,412.0
17,1685095159569,362.0,427.0
18,1685095159569,445.0,465.0
19,1685095159569,355.0,459.0
20,1685095159569,478.0,464.0
21,1685095159569,395.0,485.0
22,1685095159569,486.0,416.0
23,1685095159569,431.0,474.0
24,1685095159569,472.0,411.0
25,1685095159569,475.0,446.0
26,1685095159569,481.0,432.0
27,1685095159569,386.0,358.0
28,1685095159569,525.0,453.0
29,1685095159569,438.0,421.0
30,1685095159569,370.0,396.0
31,1685095159569,460.0,422.0
32,1685095159569,410.0,438.0
33,1685095159569,401.0,426.0
34,1685095159569,344.0,437.0
35,1685095159569,467.0,466.0
36,1685095159569,379.0,479.0
37,1685095159569,472.0,440.0
38,1685095159569,381.0,466.0
39,1685095159569,475.0,421.0
40,1685095159569,435.0,462.0
41,1685095159569,454.0,407.0
42,1685095159569,452.0,394.0
43,1685095159569,514.0,464.0
44,1685095159569,384.0,362.0
45,1685095159569,511.0,451.0
46,1685095159569,512.0,448.0
47,1685095159569,383.0,411.0
48,1685095159569,421.0,406.0
49,1685095159569,404.0,442.0
50,1685095159569,424.0,449.0
51,1685095159569,342.0,445.0
52,1685095159569,454.0,454.0
53,1685095159569,380.0,476.0
54,1685095159569,466.0,435.0
55,1685095159569,409.0,481.0
56,1685095159569,484.0,416.0
57,1685095159569,460.0,450.0
58,1685095159569,476.0,422.0
59,1685095159569,444.0,392.0
60,1685095159569,541.0,461.0
61,1685095159569,397.0,387.0
62,1685095159579,450.0,414.0
63,1685095159579,507.0,455.0
64,1685095159579,388.0,417.0
65,1685095159579,387.0,416.0
66,1685095159579,370.0,421.0
67,1685095159579,441.0,458.0
68,1685095159579,354.0,464.0
69,1685095159579,471.0,454.0
70,1685095159579,391.0,480.0
71,1685095159579,493.0,431.0
72,1685095159579,431.0,477.0
73,1685095159579,477.0,412.0
74,1685095159579,478.0,444.0
75,1685095159579,489.0,428.0
76,1685095159579,398.0,369.0
77,1685095159579,533.0,448.0
78,1685095159579,431.0,408.0
79,1685095159579,376.0,395.0
80,1685095159579,462.0,428.0
81,1685095159579,406.0,446.0
82,1685095159579,391.0,421.0
83,1685095159579,335.0,434.0
84,1685095159579,459.0,458.0
85,1685095159579,376.0,465.0
86,1685095159579,480.0,444.0
87,1685095159579,394.0,483.0
88,1685095159579,492.0,422.0
89,1685095159579,440.0,476.0
90,1685095159579,464.0,398.0
91,1685095159579,457.0,413.0
92,1685095159579,519.0,451.0
93,1685095159579,373.0,358.0
94,1685095159579,503.0,445.0
95,1685095159579,494.0,441.0
96,1685095159579,371.0,397.0
97,1685095159579,430.0,416.0
98,1685095159579,402.0,443.0
99,1685095159579,423.0,456.0
100,1685095159579,341.0,441.0
101,1685095159579,454.0,446.0
102,1685095159579,384.0,477.0
103,1685095159579,471.0,435.0
104,1685095159579,400.0,474.0
105,1685095159579,486.0,410.0
106,1685095159579,451.0,460.0
107,1685095159579,473.0,416.0
108,1685095159579,441.0,411.0
109,1685095159579,537.0,444.0
110,1685095159579,405.0,382.0
111,1685095159579,462.0,435.0
112,1685095159579,518.0,443.0
113,1685095159579,402.0,426.0
114,1685095159579,393.0,413.0
115,1685095159579,376.0,439.0
116,1685095159579,446.0,460.0
117,1685095159579,361.0,454.0
118,1685095159579,471.0,455.0
119,1685095159579,379.0,476.0
120,1685095159579,478.0,432.0
121,1685095159579,406.0,461.0
122,1685095159579,483.0,408.0
123,1685095159579,475.0,449.0
124,1685095159579,483.0,436.0
125,1685095159579,409.0,362.0
126,1685095159579,551.0,474.0
127,1685095159579,436.0,396.0
128,1685095159579,399.0,400.0
129,1685095159579,478.0,437.0
130,1685095159579,408.0,443.0
131,1685095159579,391.0,424.0
132,1685095159579,328.0,415.0
133,1685095159579,451.0,459.0
134,1685095159579,355.0,460.0
135,1685095159579,475.0,450.0
136,1685095159579,389.0,468.0
137,1685095159579,498.0,425.0
138,1685095159579,444.0,472.0
139,1685095159579,473.0,405.0
140,1685095159579,473.0,419.0
141,1685095159579,511.0,440.0
142,1685095159579,380.0,357.0
143,1685095159579,511.0,449.0
144,1685095159579,471.0,425.0
145,1685095159579,369.0,412.0
146,1685095159579,435.0,418.0
147,1685095159579,386.0,441.0
148,1685095159579,411.0,444.0
149,1685095159579,336.0,441.0
150,1685095159579,462.0,463.0
151,1685095159579,374.0,473.0
152,1685095159579,479.0,443.0
153,1685095159579,397.0,467.0
154,1685095159579,494.0,409.0
155,1685095159579,464.0,468.0
156,1685095159579,462.0,401.0
157,1685095159579,446.0,391.0
158,1685095159579,523.0,470.0
159,1685095159579,391.0,365.0
160,1685095159579,468.0,436.0
161,1685095159579,507.0,435.0
162,1685095159579,386.0,426.0
163,1685095159579,404.0,422.0
164,1685095159579,390.0,436.0
165,1685095159579,460.0,474.0
166,1685095159579,339.0,444.0
167,1685095159579,472.0,459.0
168,1685095159579,390.0,463.0
169,1685095159584,481.0,432.0
170,1685095159584,413.0,474.0
171,1685095159584,471.0,400.0
172,1685095159584,471.0,443.0
173,1685095159584,492.0,436.0
174,1685095159584,401.0,362.0
175,1685095159584,553.0,468.0
176,1685095159584,432.0,384.0
177,1685095159584,409.0,413.0
178,1685095159584,497.0,421.0
179,1685095159584,409.0,440.0
180,1685095159584,393.0,416.0
181,1685095159584,341.0,426.0
182,1685095159584,448.0,466.0
183,1685095159584,363.0,466.0
184,1685095159584,466.0,446.0
185,1685095159584,384.0,477.0
186,1685095159584,489.0,421.0
187,1685095159584,426.0,463.0
188,1685095159584,472.0,417.0
189,1685095159584,476.0,414.0
190,1685095159584,510.0,441.0
191,1685095159584,395.0,364.0
192,1685095159584,521.0,448.0
193,1685095159584,478.0,427.0
194,1685095159584,370.0,401.0
195,1685095159584,435.0,412.0
196,1685095159584,383.0,442.0
197,1685095159584,408.0,441.0
198,1685095159584,325.0,438.0
199,1685095159584,453.0,468.0
200,1685095159585,367.0,480.0
201,1685095159585,472.0,437.0
202,1685095159585,401.0,471.0
203,1685095159585,507.0,410.0
204,1685095159585,471.0,451.0
205,1685095159585,464.0,411.0
206,1685095159585,456.0,401.0
207,1685095159585,542.0,454.0
208,1685095159585,379.0,349.0
209,1685095159585,483.0,440.0
210,1685095159585,509.0,449.0
211,1685095159585,391.0,409.0
212,1685095159585,407.0,419.0
213,1685095159585,361.0,427.0
214,1685095159585,431.0,458.0
215,1685095159585,335.0,446.0
216,1685095159585,467.0,459.0
217,1685095159585,396.0,481.0
218,1685095159585,487.0,449.0
219,1685095159585,416.0,473.0
220,1685095159585,482.0,405.0
221,1685095159585,477.0,448.0
222,1685095159585,470.0,425.0
223,1685095159585,406.0,365.0
224,1685095159585,538.0,468.0
225,1685095159585,408.0,384.0
226,1685095159585,419.0,414.0
227,1685095159585,504.0,441.0
228,1685095159585,408.0,433.0
229,1685095159585,395.0,418.0
230,1685095159585,349.0,444.0
231,1685095159585,463.0,472.0
232,1685095159585,364.0,460.0
233,1685095159585,470.0,445.0
234,1685095159585,388.0,472.0
235,1685095159585,479.0,428.0
236,1685095159585,415.0,466.0
237,1685095159585,458.0,396.0
238,1685095159585,469.0,426.0
239,1685095159585,498.0,450.0
240,1685095159585,398.0,359.0
241,1685095159585,543.0,465.0
242,1685095159587,481.0,423.0
243,1685095159587,380.0,396.0
244,1685095159587,446.0,425.0
245,1685095159587,399.0,427.0
246,1685095159587,410.0,440.0
247,1685095159587,329.0,431.0
248,1685095159587,492.0,476.0
249,1685095159587,367.0,468.0
250,1685095159587,459.0,431.0
251,1685095159587,393.0,470.0
252,1685095159587,488.0,424.0
253,1685095159587,461.0,474.0
254,1685095159587,469.0,400.0
255,1685095159587,458.0,398.0
256,1685095159587,540.0,461.0
257,1685095159587,393.0,363.0
258,1685095159587,491.0,436.0
259,1685095159587,520.0,457.0
260,1685095159587,379.0,419.0
261,1685095159587,406.0,411.0
262,1685095159587,382.0,434.0
263,1685095159587,424.0,444.0
264,1685095159587,329.0,443.0
265,1685095159587,459.0,459.0
266,1685095159587,394.0,484.0
267,1685095159587,491.0,433.0
268,1685095159587,425.0,479.0
269,1685095159587,489.0,410.0
270,1685095159587,481.0,449.0
271,1685095159587,478.0,423.0
272,1685095159587,415.0,374.0
273,1685095159587,534.0,460.0
274,1685095159587,414.0,393.0
275,1685095159587,423.0,397.0
276,1685095159587,494.0,437.0
277,1685095159587,393.0,434.0
278,1685095159587,386.0,418.0
279,1685095159587,353.0,429.0
280,1685095159587,456.0,462.0
281,1685095159587,356.0,463.0
282,1685095159587,476.0,454.0
283,1685095159587,398.0,472.0
284,1685095159587,481.0,425.0
285,1685095159587,429.0,470.0
286,1685095159587,456.0,405.0
287,1685095159587,469.0,421.0
288,1685095159587,492.0,440.0
289,1685095159587,385.0,358.0
290,1685095159587,528.0,450.0
291,1685095159587,465.0,430.0
292,1685095159587,370.0,391.0
293,1685095159587,474.0,433.0
294,1685095159587,407.0,442.0
295,1685095159587,425.0,449.0
296,1685095159587,351.0,427.0
297,1685095159587,464.0,454.0
298,1685095159587,386.0,482.0
299,1685095159587,454.0,421.0
300,1685095159587,378.0,471.0
301,1685095159587,472.0,412.0
302,1685095159587,434.0,464.0
303,1685095159587,455.0,418.0
304,1685095159587,449.0,405.0
305,1685095159587,524.0,461.0
306,1685095159587,402.0,371.0
307,1685095159587,506.0,437.0
308,1685095159587,522.0,455.0
309,1685095159587,389.0,412.0
310,1685095159587,424.0,415.0
311,1685095159587,388.0,443.0
312,1685095159587,432.0,447.0
313,1685095159587,333.0,438.0
314,1685095159587,444.0,438.0
315,1685095159587,381.0,477.0
316,1685095159587,477.0,431.0
317,1685095159587,413.0,468.0
318,1685095159587,496.0,415.0
319,1685095159587,475.0,458.0
320,1685095159587,486.0,427.0
321,1685095159587,419.0,376.0
322,1685095159587,544.0,474.0
323,1685095159587,407.0,384.0
324,1685095159587,429.0,415.0
325,1685095159587,497.0,440.0
326,1685095159587,392.0,418.0
327,1685095159587,376.0,404.0
328,1685095159587,345.0,429.0
329,1685095159587,447.0,461.0
330,1685095159587,369.0,460.0
331,1685095159587,473.0,453.0
332,1685095159587,395.0,486.0
333,1685095159587,495.0,433.0
334,1685095159587,432.0,472.0
335,1685095159587,472.0,408.0
336,1685095159587,460.0,424.0
337,1685095159587,492.0,440.0
338,1685095159587,388.0,365.0
339,1685095159587,520.0,443.0
340,1685095159587,446.0,421.0
341,1685095159587,378.0,393.0
342,1685095159587,464.0,419.0
343,1685095159587,415.0,443.0
344,1685095159587,409.0,430.0
345,1685095159587,350.0,431.0
346,1685095159587,466.0,469.0
347,1685095159587,389.0,473.0
348,1685095159587,462.0,442.0
349,1685095159587,377.0,467.0
350,1685095159587,477.0,429.0
351,1685095159587,434.0,453.0
352,1685095159587,454.0,399.0
353,1685095159587,448.0,405.0
354,1685095159587,517.0,457.0
355,1685095159587,382.0,366.0
356,1685095159587,506.0,450.0
357,1685095159587,514.0,454.0
358,1685095159587,386.0,419.0
359,1685095159587,418.0,400.0
360,1685095159587,400.0,455.0
361,1685095159587,431.0,451.0
362,1685095159587,347.0,443.0
363,1685095159587,444.0,451.0
364,1685095159587,379.0,477.0
365,1685095159587,470.0,423.0
366,1685095159587,400.0,470.0
367,1685095159587,483.0,407.0
368,1685095159587,464.0,453.0
369,1685095159587,480.0,428.0
370,1685095159587,433.0,380.0
371,1685095159587,543.0,472.0
372,1685095159587,407.0,388.0
373,1685095159587,438.0,415.0
374,1685095159587,503.0,440.0
375,1685095159587,402.0,431.0
376,1685095159587,388.0,415.0
377,1685095159587,365.0,429.0
378,1685095159587,445.0,462.0
379,1685095159587,356.0,459.0
380,1685095159587,465.0,456.0
381,1685095159587,397.0,482.0
382,1685095159587,499.0,429.0
383,1685095159587,428.0,471.0
384,1685095159587,481.0,404.0
385,1685095159587,476.0,435.0
386,1685095159587,484.0,436.0
387,1685095159587,394.0,365.0
388,1685095159587,528.0,461.0
389,1685095159587,446.0,413.0
390,1685095159587,376.0,399.0
391,1685095159587,460.0,430.0
392,1685095159587,407.0,440.0
393,1685095159587,397.0,424.0
394,1685095159587,341.0,423.0
395,1685095159587,454.0,463.0
396,1685095159587,376.0,472.0
397,1685095159587,477.0,449.0
398,1685095159587,400.0,493.0
399,1685095159587,486.0,421.0
400,1685095159587,441.0,463.0
401,1685095159587,459.0,412.0
402,1685095159587,450.0,409.0
403,1685095159587,517.0,452.0
404,1685095159587,372.0,361.0
405,1685095159587,508.0,441.0
406,1685095159587,507.0,447.0
407,1685095159587,385.0,410.0
408,1685095159587,426.0,406.0
409,1685095159587,404.0,442.0
410,1685095159587,442.0,461.0
411,1685095159587,346.0,441.0
412,1685095159587,459.0,455.0
413,1685095159587,374.0,472.0
414,1685095159587,469.0,423.0
415,1685095159587,389.0,467.0
416,1685095159587,479.0,419.0
417,1685095159587,455.0,450.0
418,1685095159587,462.0,416.0
419,1685095159587,434.0,401.0
420,1685095159587,544.0,468.0
421,1685095159587,398.0,376.0
422,1685095159587,458.0,419.0
423,1685095159587,506.0,443.0
424,1685095159587,399.0,439.0
425,1685095159587,400.0,415.0
426,1685095159587,375.0,429.0
427,1685095159587,461.0,468.0
428,1685095159587,351.0,450.0
429,1685095159587,467.0,457.0
430,1685095159587,382.0,472.0
431,1685095159587,470.0,423.0
432,1685095159587,423.0,472.0
433,1685095159587,475.0,401.0
434,1685095159587,471.0,447.0
435,1685095159587,487.0,435.0
436,1685095159587,404.0,363.0
437,1685095159587,540.0,453.0
438,1685095159587,441.0,406.0
439,1685095159587,382.0,399.0
440,1685095159587,469.0,430.0
441,1685095159587,395.0,431.0
442,1685095159587,392.0,431.0
443,1685095159587,334.0,425.0
444,1685095159587,443.0,458.0
445,1685095159587,371.0,464.0
446,1685095159587,470.0,448.0
447,1685095159587,402.0,478.0
448,1685095159587,493.0,423.0
449,1685095159587,449.0,467.0
450,1685095159587,469.0,416.0
451,1685095159587,455.0,409.0
452,1685095159587,520.0,457.0
453,1685095159587,382.0,359.0
454,1685095159587,514.0,454.0
455,1685095159587,500.0,439.0
456,1685095159587,377.0,410.0
457,1685095159587,421.0,420.0
458,1685095159587,386.0,431.0
459,1685095159587,424.0,450.0
460,1685095159587,345.0,432.0
461,1685095159587,472.0,461.0
462,1685095159587,380.0,476.0
463,1685095159587,480.0,439.0
464,1685095159587,411.0,471.0
465,1685095159587,489.0,410.0
466,1685095159587,461.0,466.0
467,1685095159587,456.0,415.0
468,1685095159587,437.0,389.0
469,1685095159587,540.0,462.0
470,1685095159587,395.0,376.0
471,1685095159587,457.0,422.0
472,1685095159587,509.0,439.0
473,1685095159587,392.0,439.0
474,1685095159587,403.0,428.0
475,1685095159587,377.0,437.0
476,1685095159587,461.0,473.0
477,1685095159587,340.0,454.0
478,1685095159587,468.0,455.0
479,1685095159587,379.0,472.0
480,1685095159587,478.0,436.0
481,1685095159587,416.0,473.0
482,1685095159587,472.0,407.0
483,1685095159587,470.0,450.0
484,1685095159587,484.0,435.0
485,1685095159587,401.0,361.0
486,1685095159587,553.0,462.0
487,1685095159587,450.0,411.0
488,1685095159587,380.0,391.0
489,1685095159587,476.0,439.0
490,1685095159587,405.0,439.0
491,1685095159587,399.0,428.0
492,1685095159587,333.0,424.0
493,1685095159587,453.0,467.0
494,1685095159587,362.0,468.0
495,1685095159587,470.0,442.0
496,1685095159587,389.0,482.0
497,1685095159587,485.0,419.0
498,1685095159587,437.0,468.0
499,1685095159587,466.0,407.0
500,1685095159587,473.0,411.0
501,1685095159587,523.0,455.0
502,1685095159587,390.0,361.0
503,1685095159587,517.0,461.0
504,1685095159587,506.0,440.0
505,1685095159587,379.0,407.0
506,1685095159587,430.0,423.0
507,1685095159587,385.0,444.0
508,1685095159587,413.0,436.0
509,1685095159587,319.0,427.0
510,1685095159597,470.0,457.0
511,1685095159597,381.0,480.0
512,1685095159597,457.0,429.0
513,1685095159597,404.0,478.0
514,1685095159597,495.0,412.0
515,1685095159597,480.0,466.0
516,1685095159597,466.0,413.0
517,1685095159597,444.0,389.0
518,1685095159597,545.0,480.0
519,1685095159597,385.0,359.0
520,1685095159597,457.0,432.0
521,1685095159597,506.0,436.0
522,1685095159597,386.0,440.0
523,1685095159597,401.0,402.0
524,1685095159597,367.0,443.0
525,1685095159597,441.0,456.0
526,1685095159597,345.0,458.0
527,1685095159597,482.0,464.0
528,1685095159597,387.0,470.0
529,1685095159597,496.0,430.0
530,1685095159597,421.0,471.0
531,1685095159597,466.0,400.0
532,1685095159597,475.0,447.0
533,1685095159597,481.0,422.0
534,1685095159597,397.0,368.0
535,1685095159597,540.0,454.0
536,1685095159597,429.0,400.0
537,1685095159597,391.0,404.0
538,1685095159597,481.0,428.0
539,1685095159597,408.0,449.0
540,1685095159597,405.0,434.0
541,1685095159597,344.0,433.0
542,1685095159597,462.0,467.0
543,1685095159597,355.0,470.0
544,1685095159597,465.0,443.0
545,1685095159597,378.0,467.0
546,1685095159597,485.0,418.0
547,1685095159597,440.0,463.0
548,1685095159597,455.0,399.0
549,1685095159597,471.0,419.0
550,1685095159597,519.0,452.0
551,1685095159597,385.0,343.0
552,1685095159597,532.0,469.0
553,1685095159597,497.0,433.0
554,1685095159597,376.0,411.0
555,1685095159597,436.0,422.0
556,1685095159597,391.0,443.0
557,1685095159597,412.0,447.0
558,1685095159597,314.0,421.0
559,1685095159597,457.0,466.0
560,1685095159597,377.0,472.0
561,1685095159597,466.0,437.0
562,1685095159597,404.0,487.0
563,1685095159597,491.0,413.0
564,1685095159597,467.0,465.0
565,1685095159597,475.0,419.0
566,1685095159597,449.0,385.0
567,1685095159597,553.0,477.0
568,1685095159597,408.0,377.0
569,1685095159597,470.0,420.0
570,1685095159597,509.0,454.0
571,1685095159597,389.0,424.0
572,1685095159597,390.0,412.0
573,1685095159597,363.0,432.0
574,1685095159597,429.0,457.0
575,1685095159597,328.0,451.0
576,1685095159597,467.0,456.0
577,1685095159597,390.0,475.0
578,1685095159597,493.0,438.0
579,1685095159597,423.0,471.0
580,1685095159597,473.0,406.0
581,1685095159597,489.0,448.0
582,1685095159597,481.0,421.0
583,1685095159597,401.0,360.0
584,1685095159597,542.0,461.0
585,1685095159597,422.0,391.0
586,1685095159597,398.0,408.0
587,1685095159597,476.0,433.0
588,1685095159597,397.0,440.0
589,1685095159597,392.0,424.0
590,1685095159597,337.0,428.0
591,1685095159597,470.0,471.0
592,1685095159597,367.0,473.0
593,1685095159597,470.0,441.0
594,1685095159597,400.0,474.0
595,1685095159597,481.0,421.0
596,1685095159597,439.0,472.0
597,1685095159597,461.0,401.0
598,1685095159597,462.0,418.0
599,1685095159597,508.0,454.0
600,1685095159597,375.0,351.0
601,1685095159597,520.0,449.0
602,1685095159597,491.0,427.0
603,1685095159597,370.0,409.0
604,1685095159597,445.0,421.0
605,1685095159597,401.0,442.0
606,1685095159597,436.0,458.0
607,1685095159597,329.0,428.0
608,1685095159597,455.0,471.0
609,1685095159597,376.0,467.0
610,1685095159597,474.0,435.0
611,1685095159597,392.0,469.0
612,1685095159597,476.0,411.0
613,1685095159597,464.0,461.0
614,1685095159597,463.0,394.0
615,1685095159597,447.0,392.0
616,1685095159597,545.0,460.0
617,1685095159597,403.0,369.0
618,1685095159597,489.0,446.0
619,1685095159597,518.0,450.0
620,1685095159597,389.0,427.0
621,1685095159597,393.0,416.0
622,1685095159597,361.0,432.0
623,1685095159597,443.0,467.0
624,1685095159597,324.0,442.0
625,1685095159597,459.0,458.0
626,1685095159597,389.0,478.0
627,1685095159597,485.0,432.0
628,1685095159597,432.0,480.0
629,1685095159597,489.0,412.0
630,1685095159597,485.0,444.0
631,1685095159597,496.0,439.0
632,1685095159597,413.0,355.0
633,1685095159597,556.0,480.0
634,1685095159597,419.0,382.0
635,1685095159597,398.0,403.0
636,1685095159597,470.0,440.0
637,1685095159597,397.0,445.0
638,1685095159597,382.0,423.0
639,1685095159597,332.0,419.0
640,1685095159597,457.0,466.0
641,1685095159597,371.0,476.0
642,1685095159597,475.0,445.0
643,1685095159597,392.0,481.0
644,1685095159597,497.0,431.0
645,1685095159597,441.0,462.0
646,1685095159597,473.0,413.0
647,1685095159597,477.0,422.0
648,1685095159597,508.0,441.0
649,1685095159597,372.0,344.0
650,1685095159597,512.0,446.0
651,1685095159597,472.0,424.0
652,1685095159597,367.0,406.0
653,1685095159597,441.0,421.0
654,1685095159597,414.0,460.0
655,1685095159597,421.0,446.0
656,1685095159597,338.0,435.0
657,1685095159597,464.0,465.0
658,1685095159597,369.0,477.0
659,1685095159597,481.0,438.0
660,1685095159597,398.0,471.0
661,1685095159597,473.0,404.0
662,1685095159597,440.0,460.0
663,1685095159597,458.0,404.0
664,1685095159597,441.0,385.0
665,1685095159597,543.0,464.0
666,1685095159597,391.0,373.0
667,1685095159597,489.0,430.0
668,1685095159597,525.0,456.0
669,1685095159597,391.0,426.0
670,1685095159597,412.0,416.0
671,1685095159597,381.0,451.0
672,1685095159597,445.0,458.0
673,1685095159597,337.0,459.0
674,1685095159597,450.0,443.0
675,1685095159597,385.0,485.0
676,1685095159597,477.0,429.0
677,1685095159597,406.0,475.0
678,1685095159597,478.0,415.0
679,1685095159597,475.0,442.0
680,1685095159597,490.0,433.0
681,1685095159597,421.0,373.0
682,1685095159597,555.0,476.0
683,1685095159597,432.0,388.0
684,1685095159597,413.0,401.0
685,1685095159597,494.0,439.0
686,1685095159597,402.0,430.0
687,1685095159597,377.0,424.0
688,1685095159597,327.0,420.0
689,1685095159597,448.0,464.0
690,1685095159597,361.0,467.0
691,1685095159597,475.0,440.0
692,1685095159597,390.0,475.0
693,1685095159597,493.0,423.0
694,1685095159597,456.0,483.0
695,1685095159597,474.0,392.0
696,1685095159597,476.0,436.0
697,1685095159597,507.0,432.0
698,1685095159597,380.0,360.0
699,1685095159597,515.0,449.0
700,1685095159597,467.0,428.0
701,1685095159597,366.0,406.0
702,1685095159597,431.0,424.0
703,1685095159597,389.0,438.0
704,1685095159597,413.0,452.0
705,1685095159597,328.0,429.0
706,1685095159597,459.0,465.0
707,1685095159597,380.0,480.0
708,1685095159597,479.0,440.0
709,1685095159597,408.0,474.0
710,1685095159597,493.0,416.0
711,1685095159597,464.0,468.0
712,1685095159597,457.0,411.0
713,1685095159597,444.0,377.0
714,1685095159597,531.0,463.0
715,1685095159597,378.0,360.0
716,1685095159597,486.0,442.0
717,1685095159597,527.0,449.0
718,1685095159597,385.0,422.0
719,1685095159597,420.0,420.0
720,1685095159597,385.0,442.0
721,1685095159597,449.0,471.0
722,1685095159597,343.0,450.0
723,1685095159597,460.0,458.0
724,1685095159597,386.0,476.0
725,1685095159597,464.0,429.0
726,1685095159597,403.0,475.0
727,1685095159597,473.0,392.0
728,1685095159597,467.0,447.0
729,1685095159597,478.0,427.0
730,1685095159597,410.0,365.0
731,1685095159597,558.0,469.0
732,1685095159597,435.0,404.0
733,1685095159597,422.0,414.0
734,1685095159597,504.0,439.0
735,1685095159597,405.0,439.0
736,1685095159597,398.0,428.0
737,1685095159597,338.0,420.0
738,1685095159597,451.0,469.0
739,1685095159597,360.0,467.0
740,1685095159597,467.0,448.0
741,1685095159597,387.0,483.0
742,1685095159597,480.0,410.0
743,1685095159597,440.0,488.0
744,1685095159597,475.0,406.0
745,1685095159597,479.0,435.0
746,1685095159597,514.0,435.0
747,1685095159597,393.0,359.0
748,1685095159597,532.0,465.0
749,1685095159597,467.0,421.0
750,1685095159597,359.0,394.0
751,1685095159597,440.0,427.0
752,1685095159597,384.0,432.0
753,1685095159597,403.0,431.0
754,1685095159597,330.0,438.0
755,1685095159597,449.0,457.0
756,1685095159597,378.0,477.0
757,1685095159597,482.0,437.0
758,1685095159597,405.0,477.0
759,1685095159597,499.0,416.0
760,1685095159597,461.0,476.0
761,1685095159597,470.0,411.0
762,1685095159597,457.0,397.0
763,1685095159597,530.0,460.0
764,1685095159597,374.0,360.0
765,1685095159597,487.0,440.0
766,1685095159597,516.0,452.0
767,1685095159597,377.0,419.0
768,1685095159597,413.0,420.0
769,1685095159597,366.0,434.0
770,1685095159597,445.0,464.0
771,1685095159597,343.0,455.0
772,1685095159597,481.0,462.0
773,1685095159597,381.0,465.0
774,1685095159597,478.0,438.0
775,1685095159597,410.0,476.0
776,1685095159597,472.0,404.0
777,1685095159597,469.0,450.0
778,1685095159597,468.0,424.0
779,1685095159597,407.0,360.0
780,1685095159597,547.0,474.0
781,1685095159597,412.0,386.0
782,1685095159597,426.0,415.0
783,1685095159597,516.0,448.0
784,1685095159597,414.0,449.0
785,1685095159597,387.0,429.0
786,1685095159597,357.0,436.0
787,1685095159597,456.0,471.0
788,1685095159597,356.0,459.0
789,1685095159597,467.0,451.0
790,1685095159597,379.0,477.0
791,1685095159597,477.0,415.0
792,1685095159597,426.0,471.0
793,1685095159597,463.0,399.0
794,1685095159597,477.0,433.0
795,1685095159597,499.0,437.0
796,1685095159597,395.0,356.0
797,1685095159597,541.0,457.0
798,1685095159597,479.0,430.0
799,1685095159597,373.0,402.0
800,1685095159597,445.0,417.0
801,1685095159597,387.0,436.0
802,1685095159597,402.0,441.0
803,1685095159597,335.0,437.0
804,1685095159597,450.0,465.0
805,1685095159597,361.0,466.0
806,1685095159597,471.0,437.0
807,1685095159597,389.0,472.0
808,1685095159597,493.0,418.0
809,1685095159597,468.0,461.0
810,1685095159597,468.0,402.0
811,1685095159597,457.0,413.0
812,1685095159597,535.0,456.0
813,1685095159597,387.0,362.0
814,1685095159601,486.0,434.0
815,1685095159601,517.0,448.0
816,1685095159601,383.0,420.0
817,1685095159601,398.0,415.0
818,1685095159601,372.0,437.0
819,1685095159601,430.0,465.0
820,1685095159601,327.0,444.0
821,1685095159601,474.0,458.0
822,1685095159601,392.0,479.0
823,1685095159601,487.0,433.0
824,1685095159601,419.0,479.0
825,1685095159601,490.0,412.0
826,1685095159601,470.0,459.0
827,1685095159601,477.0,425.0
828,1685095159601,416.0,366.0
829,1685095159601,540.0,471.0
830,1685095159601,399.0,394.0
831,1685095159601,431.0,412.0
832,1685095159601,505.0,444.0
833,1685095159601,403.0,436.0
834,1685095159601,387.0,416.0
835,1685095159601,356.0,445.0
836,1685095159601,450.0,462.0
837,1685095159601,353.0,458.0
838,1685095159601,486.0,454.0
839,1685095159601,373.0,465.0
840,1685095159601,490.0,429.0
841,1685095159601,420.0,450.0
842,1685095159601,467.0,407.0
843,1685095159601,468.0,427.0
844,1685095159601,486.0,421.0
845,1685095159601,389.0,359.0
846,1685095159601,532.0,462.0
847,1685095159601,470.0,422.0
848,1685095159601,376.0,403.0
849,1685095159601,459.0,423.0
850,1685095159601,393.0,433.0
851,1685095159601,409.0,436.0
852,1685095159601,335.0,437.0
853,1685095159601,465.0,472.0
854,1685095159601,371.0,470.0
855,1685095159601,465.0,437.0
856,1685095159602,386.0,467.0
857,1685095159602,474.0,408.0
858,1685095159602,452.0,472.0
859,1685095159602,463.0,403.0
860,1685095159602,451.0,404.0
861,1685095159602,532.0,469.0
862,1685095159602,397.0,370.0
863,1685095159602,498.0,449.0
864,1685095159602,528.0,458.0
865,1685095159602,383.0,417.0
866,1685095159602,412.0,420.0
867,1685095159602,389.0,437.0
868,1685095159602,429.0,452.0
869,1685095159602,329.0,439.0
870,1685095159602,456.0,452.0
871,1685095159602,375.0,463.0
872,1685095159602,487.0,431.0
873,1685095159602,418.0,477.0
874,1685095159602,491.0,406.0
875,1685095159602,478.0,456.0
876,1685095159602,486.0,430.0
877,1685095159602,423.0,371.0
878,1685095159602,550.0,477.0
879,1685095159602,415.0,390.0
880,1685095159602,427.0,416.0
881,1685095159602,491.0,435.0
882,1685095159602,389.0,434.0
883,1685095159602,381.0,409.0
884,1685095159602,347.0,434.0
885,1685095159602,453.0,451.0
886,1685095159602,351.0,454.0
887,1685095159602,475.0,461.0
888,1685095159602,390.0,477.0
889,1685095159602,493.0,430.0
890,1685095159602,438.0,472.0
891,1685095159602,474.0,405.0
892,1685095159602,477.0,427.0
893,1685095159602,485.0,428.0
894,1685095159602,389.0,372.0
895,1685095159602,525.0,445.0
896,1685095159602,448.0,420.0
897,1685095159602,374.0,397.0
898,1685095159602,458.0,424.0
899,1685095159602,402.0,430.0
900,1685095159602,400.0,436.0
901,1685095159602,335.0,431.0
902,1685095159602,468.0,470.0
903,1685095159602,378.0,464.0
904,1685095159602,467.0,439.0
905,1685095159602,390.0,473.0
906,1685095159602,480.0,414.0
907,1685095159602,440.0,468.0
908,1685095159602,457.0,411.0
909,1685095159602,450.0,402.0
910,1685095159602,527.0,453.0
911,1685095159602,391.0,359.0
912,1685095159602,503.0,442.0
913,1685095159602,514.0,448.0
914,1685095159602,379.0,413.0
915,1685095159602,424.0,422.0
916,1685095159602,391.0,444.0
917,1685095159602,432.0,466.0
918,1685095159602,332.0,430.0
919,1685095159602,452.0,462.0
920,1685095159602,375.0,472.0
921,1685095159602,482.0,438.0
922,1685095159602,409.0,474.0
923,1685095159602,480.0,407.0
924,1685095159602,475.0,455.0
925,1685095159602,477.0,429.0
926,1685095159603,432.0,368.0
927,1685095159603,554.0,471.0
928,1685095159603,401.0,381.0
929,1685095159603,426.0,421.0
930,1685095159603,503.0,438.0
931,1685095159603,394.0,437.0
932,1685095159603,389.0,420.0
933,1685095159603,350.0,429.0
934,1685095159603,450.0,447.0
935,1685095159603,343.0,459.0
936,1685095159603,473.0,464.0
937,1685095159603,389.0,477.0
938,1685095159603,480.0,417.0
939,1685095159603,434.0,485.0
940,1685095159603,484.0,408.0
941,1685095159603,478.0,439.0
942,1685095159603,496.0,438.0
943,1685095159603,395.0,355.0
944,1685095159603,532.0,458.0
945,1685095159603,452.0,425.0
946,1685095159603,363.0,401.0
947,1685095159603,462.0,427.0
948,1685095159603,397.0,440.0
949,1685095159603,400.0,440.0
950,1685095159603,325.0,422.0
951,1685095159603,457.0,469.0
952,1685095159603,367.0,469.0
953,1685095159603,475.0,457.0
954,1685095159603,400.0,479.0
955,1685095159603,488.0,416.0
956,1685095159603,446.0,452.0
957,1685095159603,457.0,402.0
958,1685095159603,457.0,403.0
959,1685095159603,528.0,464.0
960,1685095159603,380.0,369.0
961,1685095159603,502.0,452.0
962,1685095159603,505.0,427.0
963,1685095159603,375.0,421.0
964,1685095159603,424.0,415.0
965,1685095159603,389.0,451.0
966,1685095159603,436.0,452.0
967,1685095159603,336.0,444.0
968,1685095159603,453.0,448.0
969,1685095159603,388.0,483.0
970,1685095159603,477.0,429.0
971,1685095159603,402.0,468.0
972,1685095159603,473.0,405.0
973,1685095159603,463.0,453.0
974,1685095159603,472.0,424.0
975,1685095159603,427.0,374.0
976,1685095159603,539.0,469.0
977,1685095159603,409.0,380.0
978,1685095159603,442.0,422.0
979,1685095159603,512.0,442.0
980,1685095159603,392.0,430.0
981,1685095159603,394.0,414.0
982,1685095159603,355.0,438.0
983,1685095159603,459.0,471.0
984,1685095159603,358.0,447.0
985,1685095159603,473.0,452.0
986,1685095159603,380.0,467.0
987,1685095159603,479.0,432.0
988,1685095159603,421.0,477.0
989,1685095159603,464.0,395.0
990,1685095159603,465.0,447.0
991,1685095159603,490.0,432.0
992,1685095159603,398.0,363.0
993,1685095159603,540.0,460.0
994,1685095159603,453.0,416.0
995,1685095159603,376.0,403.0
996,1685095159603,464.0,433.0
997,1685095159603,406.0,451.0
998,1685095159603,401.0,434.0
999,1685095159603,327.0,423.0
1000,1685095159603,447.0,460.0
1001,1685095159603,368.0,471.0
1002,1685095159603,469.0,448.0
1003,1685095159603,392.0,469.0
1004,1685095159603,488.0,420.0
1005,1685095159603,451.0,464.0
1006,1685095159603,468.0,403.0
1007,1685095159603,468.0,409.0
1008,1685095159603,527.0,448.0
1009,1685095159603,381.0,364.0
1010,1685095159603,511.0,455.0
1011,1685095159603,498.0,433.0
1012,1685095159603,366.0,414.0
1013,1685095159603,423.0,414.0
1014,1685095159603,386.0,439.0
1015,1685095159603,422.0,446.0
1016,1685095159603,333.0,441.0
1017,1685095159603,458.0,449.0
1018,1685095159603,377.0,471.0
1019,1685095159603,486.0,444.0
1020,1685095159603,408.0,475.0
1021,1685095159603,491.0,412.0
1022,1685095159603,473.0,455.0
1023,1685095159603,472.0,412.0
1024,1685095159603,432.0,378.0
1025,1685095159603,534.0,449.0
1026,1685095159603,394.0,380.0
1027,1685095159603,445.0,421.0
1028,1685095159603,506.0,448.0
1029,1685095159603,393.0,431.0
1030,1685095159603,401.0,418.0
1031,1685095159603,368.0,435.0
1032,1685095159603,462.0,472.0
1033,1685095159603,367.0,457.0
1034,1685095159603,476.0,460.0
1035,1685095159603,386.0,485.0
1036,1685095159605,479.0,428.0
1037,1685095159605,411.0,469.0
1038,1685095159605,459.0,401.0
1039,1685095159605,464.0,437.0
1040,1685095159605,485.0,432.0
1041,1685095159605,391.0,359.0
1042,1685095159605,544.0,460.0
1043,1685095159605,456.0,409.0
1044,1685095159605,382.0,398.0
1045,1685095159605,481.0,434.0
1046,1685095159605,410.0,448.0
1047,1685095159605,406.0,437.0
1048,1685095159605,344.0,438.0
1049,1685095159605,442.0,464.0
1050,1685095159605,350.0,462.0
1051,1685095159605,463.0,438.0
1052,1685095159605,372.0,465.0
1053,1685095159605,483.0,420.0
1054,1685095159605,447.0,467.0
1055,1685095159605,468.0,407.0
1056,1685095159605,464.0,414.0
1057,1685095159605,529.0,446.0
1058,1685095159605,401.0,375.0
1059,1685095159605,517.0,450.0
1060,1685095159605,508.0,436.0
1061,1685095159605,365.0,405.0
1062,1685095159605,426.0,418.0
1063,1685095159605,378.0,441.0
1064,1685095159605,417.0,453.0
1065,1685095159605,325.0,443.0
1066,1685095159605,456.0,457.0
1067,1685095159605,376.0,474.0
1068,1685095159605,487.0,440.0
1069,1685095159605,410.0,472.0
1070,1685095159605,503.0,419.0
1071,1685095159605,479.0,461.0
1072,1685095159605,476.0,410.0
1073,1685095159605,441.0,385.0
1074,1685095159605,532.0,457.0
1075,1685095159605,382.0,368.0
1076,1685095159605,445.0,425.0
1077,1685095159605,509.0,456.0
1078,1685095159605,380.0,421.0
1079,1685095159605,389.0,418.0
1080,1685095159605,347.0,426.0
1081,1685095159605,448.0,461.0
1082,1685095159605,361.0,461.0
1083,1685095159605,489.0,466.0
1084,1685095159605,389.0,469.0
1085,1685095159605,501.0,444.0
1086,1685095159605,419.0,457.0
1087,1685095159605,467.0,405.0
1088,1685095159605,465.0,440.0
1089,1685095159605,473.0,425.0
1090,1685095159605,391.0,360.0
1091,1685095159605,541.0,459.0
1092,1685095159605,435.0,400.0
1093,1685095159605,387.0,406.0
1094,1685095159605,485.0,430.0
1095,1685095159605,412.0,457.0
1096,1685095159605,404.0,435.0
1097,1685095159605,363.0,436.0
1098,1685095159605,460.0,460.0
1099,1685095159605,372.0,468.0
1100,1685095159605,501.0,445.0
1101,1685095159605,386.0,464.0
1102,1685095159605,474.0,410.0
1103,1685095159605,434.0,476.0
1104,1685095159605,455.0,399.0
1105,1685095159605,466.0,409.0
1106,1685095159605,519.0,454.0
1107,1685095159605,391.0,369.0
1108,1685095159605,525.0,446.0
1109,1685095159605,518.0,451.0
1110,1685095159605,378.0,409.0
1111,1685095159605,434.0,416.0
1112,1685095159605,396.0,443.0
1113,1685095159605,414.0,461.0
1114,1685095159605,336.0,433.0
1115,1685095159605,464.0,458.0
1116,1685095159605,365.0,470.0
1117,1685095159605,469.0,425.0
1118,1685095159605,401.0,470.0
1119,1685095159605,489.0,411.0
1120,1685095159605,479.0,458.0
1121,1685095159605,477.0,410.0
1122,1685095159605,445.0,381.0
1123,1685095159605,538.0,470.0
1124,1685095159605,398.0,377.0
1125,1685095159605,454.0,416.0
1126,1685095159605,517.0,463.0
1127,1685095159605,377.0,416.0
1128,1685095159605,392.0,410.0
1129,1685095159622,360.0,433.0
1130,1685095159622,433.0,454.0
1131,1685095159622,341.0,454.0
1132,1685095159622,478.0,463.0
1133,1685095159648,396.0,472.0
1134,1685095159648,502.0,440.0
1135,1685095159648,428.0,480.0
1136,1685095159682,485.0,401.0
1137,1685095159682,478.0,437.0
1138,1685095159682,482.0,425.0
1139,1685095159682,396.0,361.0
1140,1685095159723,526.0,449.0
1141,1685095159723,432.0,411.0
1142,1685095159723,375.0,391.0
1143,1685095159723,468.0,426.0
1144,1685095159757,396.0,441.0
1145,1685095159757,391.0,428.0
1146,1685095159757,352.0,440.0
1147,1685095159789,473.0,465.0
1148,1685095159789,362.0,466.0
1149,1685095159789,477.0,454.0
1150,1685095159789,393.0,472.0
1151,1685095159823,486.0,411.0
1152,1685095159823,438.0,472.0
1153,1685095159823,454.0,398.0
1154,1685095159854,465.0,420.0
1155,1685095159854,513.0,443.0
1156,1685095159854,367.0,355.0
1157,1685095159854,511.0,455.0
1158,1685095159886,502.0,439.0
1159,1685095159886,370.0,417.0
1160,1685095159886,445.0,416.0
1161,1685095159918,401.0,446.0
1162,1685095159918,437.0,457.0
1163,1685095159918,341.0,436.0
1164,1685095159918,469.0,460.0
1165,1685095159950,366.0,470.0
1166,1685095159950,459.0,425.0
1167,1685095159950,388.0,462.0
1168,1685095159981,479.0,416.0
1169,1685095159981,456.0,457.0
1170,1685095159981,464.0,410.0
1171,1685095159981,451.0,392.0
1172,1685095160013,536.0,462.0
1173,1685095160013,405.0,379.0
1174,1685095160013,476.0,430.0
1175,1685095160013,525.0,457.0
1176,1685095160057,390.0,432.0
1177,1685095160057,399.0,412.0
1178,1685095160057,366.0,444.0
1179,1685095160089,432.0,448.0
1180,1685095160089,325.0,446.0
1181,1685095160089,475.0,457.0
1182,1685095160089,381.0,464.0
1183,1685095160124,491.0,437.0
1184,1685095160124,429.0,478.0
1185,1685095160124,482.0,401.0
1186,1685095160155,486.0,445.0
1187,1685095160155,490.0,433.0
1188,1685095160155,409.0,363.0
1189,1685095160155,548.0,471.0
1190,1685095160186,425.0,393.0
1191,1685095160186,374.0,398.0
1192,1685095160186,475.0,430.0
1193,1685095160220,383.0,440.0
1194,1685095160220,384.0,419.0
1195,1685095160220,328.0,433.0
1196,1685095160220,458.0,471.0
1197,1685095160254,368.0,471.0
1198,1685095160254,481.0,453.0
1199,1685095160254,400.0,467.0
1200,1685095160282,500.0,433.0
1201,1685095160282,455.0,475.0
1202,1685095160282,462.0,397.0
1203,1685095160282,458.0,416.0
1204,1685095160314,506.0,441.0
1205,1685095160314,370.0,348.0
1206,1685095160314,497.0,444.0
1207,1685095160314,477.0,432.0
1208,1685095160358,370.0,400.0
1209,1685095160358,442.0,423.0
1210,1685095160358,397.0,449.0
1211,1685095160390,433.0,455.0
1212,1685095160390,342.0,445.0
1213,1685095160390,477.0,465.0
1214,1685095160390,377.0,468.0
1215,1685095160425,475.0,442.0
1216,1685095160425,390.0,459.0
1217,1685095160425,465.0,404.0
1218,1685095160456,444.0,457.0
1219,1685095160456,458.0,408.0
1220,1685095160456,443.0,387.0
1221,1685095160456,526.0,454.0
1222,1685095160488,402.0,377.0
1223,1685095160488,477.0,445.0
1224,1685095160488,530.0,443.0
1225,1685095160520,406.0,438.0
1226,1685095160520,415.0,415.0
1227,1685095160520,367.0,442.0
1228,1685095160520,446.0,478.0
1229,1685095160552,334.0,430.0
1230,1685095160552,451.0,448.0
1231,1685095160552,374.0,467.0
1232,1685095160584,474.0,416.0
1233,1685095160584,424.0,482.0
1234,1685095160584,478.0,405.0
1235,1685095160584,486.0,448.0
1236,1685095160624,491.0,432.0
1237,1685095160624,417.0,364.0
1238,1685095160624,556.0,472.0
1239,1685095160624,430.0,401.0
1240,1685095160658,400.0,410.0
1241,1685095160658,487.0,439.0
1242,1685095160658,388.0,439.0
1243,1685095160691,391.0,416.0
1244,1685095160691,327.0,424.0
1245,1685095160691,457.0,470.0
1246,1685095160691,358.0,455.0
1247,1685095160726,477.0,463.0
1248,1685095160726,395.0,473.0
1249,1685095160726,507.0,434.0
1250,1685095160757,456.0,462.0
1251,1685095160757,470.0,400.0
1252,1685095160757,462.0,415.0
1253,1685095160757,501.0,439.0
1254,1685095160790,385.0,353.0
1255,1685095160790,517.0,458.0
1256,1685095160790,474.0,425.0
1257,1685095160821,360.0,401.0
1258,1685095160821,443.0,409.0
1259,1685095160821,393.0,447.0
1260,1685095160821,414.0,434.0
1261,1685095160852,335.0,433.0
1262,1685095160852,470.0,480.0
1263,1685095160852,387.0,468.0
1264,1685095160883,483.0,433.0
1265,1685095160883,399.0,478.0
1266,1685095160883,477.0,405.0
1267,1685095160883,456.0,456.0
1268,1685095160915,468.0,410.0
1269,1685095160915,442.0,383.0
1270,1685095160915,525.0,458.0
1271,1685095160915,386.0,367.0
1272,1685095160959,469.0,435.0
1273,1685095160959,528.0,456.0
1274,1685095160959,386.0,422.0
1275,1685095160990,411.0,414.0
1276,1685095160990,390.0,446.0
1277,1685095160990,450.0,469.0
1278,1685095160990,349.0,455.0
1279,1685095161030,463.0,451.0
1280,1685095161030,377.0,471.0
1281,1685095161030,474.0,427.0
1282,1685095161046,411.0,486.0
1283,1685095161046,479.0,413.0
1284,1685095161046,473.0,441.0
1285,1685095161046,484.0,425.0
1286,1685095161092,412.0,371.0
1287,1685095161092,543.0,467.0
1288,1685095161092,432.0,394.0
1289,1685095161124,398.0,401.0
1290,1685095161124,496.0,433.0
1291,1685095161124,398.0,445.0
1292,1685095161124,394.0,416.0
1293,1685095161157,348.0,431.0
1294,1685095161157,445.0,466.0
1295,1685095161157,366.0,459.0
1296,1685095161187,474.0,446.0
1297,1685095161187,384.0,475.0
1298,1685095161187,493.0,424.0
1299,1685095161187,444.0,477.0
1300,1685095161219,461.0,392.0
1301,1685095161219,463.0,423.0
1302,1685095161219,496.0,442.0
1303,1685095161219,392.0,348.0
1304,1685095161260,530.0,467.0
1305,1685095161260,476.0,438.0
1306,1685095161260,362.0,399.0
1307,1685095161291,453.0,435.0
1308,1685095161291,386.0,439.0
1309,1685095161291,408.0,438.0
1310,1685095161291,335.0,436.0
1311,1685095161326,453.0,459.0
1312,1685095161326,387.0,469.0
1313,1685095161326,482.0,441.0
1314,1685095161359,406.0,476.0
1315,1685095161359,496.0,416.0
1316,1685095161359,469.0,446.0
1317,1685095161359,471.0,417.0
1318,1685095161389,455.0,391.0
1319,1685095161389,531.0,463.0
1320,1685095161389,380.0,359.0
1321,1685095161421,472.0,443.0
1322,1685095161421,516.0,453.0
1323,1685095161421,372.0,418.0
1324,1685095161421,403.0,413.0
1325,1685095161452,381.0,444.0
1326,1685095161452,443.0,455.0
1327,1685095161452,340.0,457.0
1328,1685095161486,468.0,454.0
1329,1685095161486,384.0,479.0
1330,1685095161486,487.0,434.0
1331,1685095161486,423.0,462.0
1332,1685095161516,488.0,415.0
1333,1685095161516,483.0,445.0
1334,1685095161516,473.0,435.0
1335,1685095161516,407.0,368.0
1336,1685095161561,535.0,468.0
1337,1685095161561,410.0,389.0
1338,1685095161561,409.0,410.0
1339,1685095161592,503.0,447.0
1340,1685095161592,409.0,445.0
1341,1685095161592,406.0,429.0
1342,1685095161592,350.0,435.0
1343,1685095161627,461.0,464.0
1344,1685095161627,366.0,457.0
1345,1685095161627,471.0,448.0
1346,1685095161660,384.0,478.0
1347,1685095161660,484.0,420.0
1348,1685095161660,423.0,471.0
1349,1685095161660,461.0,398.0
1350,1685095161691,470.0,431.0
1351,1685095161691,501.0,435.0
1352,1685095161691,383.0,351.0
1353,1685095161727,527.0,451.0
1354,1685095161727,484.0,425.0
1355,1685095161727,368.0,403.0
1356,1685095161727,463.0,431.0
1357,1685095161760,397.0,448.0
1358,1685095161760,403.0,438.0
1359,1685095161760,334.0,427.0
1360,1685095161785,455.0,450.0
1361,1685095161785,359.0,474.0
1362,1685095161785,473.0,442.0
1363,1685095161785,388.0,470.0
1364,1685095161816,491.0,425.0
1365,1685095161816,461.0,467.0
1366,1685095161816,467.0,404.0
1367,1685095161816,462.0,403.0
1368,1685095161862,531.0,458.0
1369,1685095161862,391.0,370.0
1370,1685095161862,489.0,450.0
1371,1685095161893,514.0,466.0
1372,1685095161893,368.0,412.0
1373,1685095161893,406.0,418.0
1374,1685095161893,366.0,428.0
1375,1685095161928,436.0,458.0
1376,1685095161928,341.0,442.0
1377,1685095161928,473.0,463.0
1378,1685095161960,392.0,475.0
1379,1685095161960,483.0,422.0
1380,1685095161960,424.0,475.0
1381,1685095161960,481.0,406.0
1382,1685095161992,489.0,453.0
1383,1685095161992,484.0,433.0
1384,1685095161992,417.0,367.0
1385,1685095162022,534.0,468.0
1386,1685095162022,397.0,382.0
1387,1685095162022,396.0,407.0
1388,1685095162022,489.0,441.0
1389,1685095162054,389.0,439.0
1390,1685095162054,395.0,420.0
1391,1685095162054,351.0,429.0
1392,1685095162085,446.0,466.0
1393,1685095162085,367.0,466.0
1394,1685095162085,485.0,457.0
1395,1685095162085,391.0,474.0
1396,1685095162117,496.0,432.0
1397,1685095162117,430.0,461.0
1398,1685095162117,468.0,398.0
1399,1685095162117,475.0,432.0
1400,1685095162162,489.0,423.0
1401,1685095162162,387.0,357.0
1402,1685095162162,528.0,450.0
1403,1685095162193,470.0,425.0
1404,1685095162193,369.0,404.0
1405,1685095162193,459.0,426.0
1406,1685095162193,394.0,443.0
1407,1685095162229,418.0,435.0
1408,1685095162229,347.0,441.0
1409,1685095162229,469.0,459.0
1410,1685095162261,360.0,466.0
1411,1685095162261,466.0,436.0
1412,1685095162261,393.0,476.0
1413,1685095162261,488.0,413.0
1414,1685095162291,451.0,462.0
1415,1685095162291,453.0,401.0
1416,1685095162291,453.0,397.0
1417,1685095162323,535.0,464.0
1418,1685095162323,395.0,362.0
1419,1685095162323,498.0,457.0
1420,1685095162323,522.0,453.0
1421,1685095162355,381.0,430.0
1422,1685095162355,409.0,412.0
1423,1685095162355,387.0,438.0
1424,1685095162392,432.0,457.0
1425,1685095162392,332.0,445.0
1426,1685095162392,470.0,463.0
1427,1685095162392,383.0,476.0
1428,1685095162417,484.0,427.0
1429,1685095162417,413.0,476.0
1430,1685095162417,487.0,404.0
1431,1685095162417,474.0,453.0
1432,1685095162463,485.0,418.0
1433,1685095162463,423.0,375.0
1434,1685095162463,540.0,465.0
1435,1685095162494,413.0,381.0
1436,1685095162494,412.0,412.0
1437,1685095162494,498.0,444.0
1438,1685095162494,397.0,439.0
1439,1685095162530,382.0,413.0
1440,1685095162530,352.0,444.0
1441,1685095162530,451.0,459.0
1442,1685095162560,343.0,459.0
1443,1685095162560,483.0,475.0
1444,1685095162560,393.0,468.0
1445,1685095162560,498.0,421.0
1446,1685095162593,444.0,475.0
1447,1685095162593,470.0,400.0
1448,1685095162593,481.0,437.0
1449,1685095162626,487.0,424.0
1450,1685095162626,382.0,357.0
1451,1685095162626,522.0,451.0
1452,1685095162626,453.0,418.0
1453,1685095162662,363.0,395.0
1454,1685095162662,446.0,428.0
1455,1685095162662,402.0,450.0
1456,1685095162696,406.0,423.0
1457,1685095162696,335.0,436.0
1458,1685095162696,474.0,466.0
1459,1685095162696,364.0,459.0
1460,1685095162729,470.0,438.0
1461,1685095162729,398.0,468.0
1462,1685095162729,486.0,411.0
1463,1685095162729,454.0,468.0
1464,1685095162763,462.0,398.0
1465,1685095162763,456.0,401.0
1466,1685095162763,529.0,462.0
1467,1685095162794,376.0,347.0
1468,1685095162794,487.0,449.0
1469,1685095162794,513.0,454.0
1470,1685095162794,380.0,428.0
1471,1685095162830,425.0,416.0
1472,1685095162830,382.0,444.0
1473,1685095162830,441.0,461.0
1474,1685095162861,349.0,451.0
1475,1685095162861,481.0,458.0
1476,1685095162861,386.0,475.0
1477,1685095162861,473.0,432.0
1478,1685095162894,394.0,468.0
1479,1685095162894,479.0,406.0
1480,1685095162894,476.0,460.0
1481,1685095162924,469.0,422.0
1482,1685095162924,424.0,380.0
1483,1685095162924,548.0,456.0
1484,1685095162924,426.0,401.0
1485,1685095162957,433.0,415.0
1486,1685095162957,504.0,443.0
1487,1685095162957,392.0,431.0
1488,1685095162987,393.0,424.0
1489,1685095162987,355.0,443.0
1490,1685095162987,462.0,460.0
1491,1685095162987,335.0,451.0
1492,1685095163019,472.0,455.0
1493,1685095163019,385.0,475.0
1494,1685095163019,486.0,426.0
1495,1685095163019,442.0,467.0
1496,1685095163064,482.0,409.0
1497,1685095163064,480.0,422.0
1498,1685095163064,502.0,444.0
1499,1685095163095,397.0,354.0
1500,1685095163095,530.0,458.0
1501,1685095163095,446.0,404.0
1502,1685095163095,355.0,397.0
1503,1685095163130,447.0,413.0
1504,1685095163130,384.0,438.0
1505,1685095163130,390.0,430.0
1506,1685095163163,321.0,429.0
1507,1685095163163,469.0,478.0
1508,1685095163163,374.0,473.0
1509,1685095163163,487.0,437.0
1510,1685095163193,411.0,485.0
1511,1685095163193,500.0,416.0
1512,1685095163193,457.0,463.0
1513,1685095163225,463.0,398.0
1514,1685095163225,458.0,400.0
1515,1685095163225,511.0,466.0
1516,1685095163225,376.0,355.0
1517,1685095163256,481.0,431.0
1518,1685095163256,495.0,447.0
1519,1685095163256,383.0,429.0
1520,1685095163288,427.0,417.0
1521,1685095163288,392.0,453.0
1522,1685095163288,448.0,460.0
1523,1685095163288,339.0,443.0
1524,1685095163319,486.0,461.0
1525,1685095163319,388.0,464.0
1526,1685095163319,485.0,431.0
1527,1685095163319,405.0,484.0
1528,1685095163364,462.0,394.0
1529,1685095163364,464.0,460.0
1530,1685095163364,467.0,411.0
1531,1685095163396,418.0,383.0
1532,1685095163396,540.0,458.0
1533,1685095163396,401.0,383.0
1534,1685095163396,450.0,424.0
1535,1685095163430,517.0,457.0
1536,1685095163430,394.0,435.0
1537,1685095163430,407.0,428.0
1538,1685095163463,354.0,428.0
1539,1685095163463,458.0,475.0
1540,1685095163463,339.0,448.0
1541,1685095163463,469.0,453.0
1542,1685095163495,379.0,468.0
1543,1685095163495,476.0,415.0
1544,1685095163495,430.0,474.0
1545,1685095163525,471.0,395.0
1546,1685095163525,477.0,439.0
1547,1685095163525,494.0,428.0
1548,1685095163525,407.0,365.0
1549,1685095163557,538.0,464.0
1550,1685095163557,446.0,390.0
1551,1685095163557,368.0,413.0
1552,1685095163589,457.0,430.0
1553,1685095163589,387.0,439.0
1554,1685095163589,393.0,438.0
1555,1685095163589,316.0,429.0
1556,1685095163620,467.0,469.0
1557,1685095163620,374.0,469.0
1558,1685095163620,483.0,446.0
1559,1685095163620,409.0,488.0
1560,1685095163665,506.0,415.0
1561,1685095163665,467.0,474.0
1562,1685095163665,466.0,410.0
1563,1685095163696,464.0,401.0
1564,1685095163696,517.0,459.0
1565,1685095163696,371.0,345.0
1566,1685095163696,491.0,448.0
1567,1685095163732,488.0,432.0
1568,1685095163732,359.0,415.0
1569,1685095163732,419.0,419.0
1570,1685095163764,389.0,438.0
1571,1685095163764,432.0,463.0
1572,1685095163764,328.0,434.0
1573,1685095163764,478.0,463.0
1574,1685095163796,391.0,478.0
1575,1685095163796,488.0,437.0
1576,1685095163796,416.0,478.0
1577,1685095163826,473.0,395.0
1578,1685095163826,468.0,463.0
1579,1685095163826,468.0,416.0
1580,1685095163826,425.0,385.0
1581,1685095163859,537.0,470.0
1582,1685095163859,394.0,379.0
1583,1685095163859,444.0,432.0
1584,1685095163890,519.0,445.0
1585,1685095163890,390.0,429.0
1586,1685095163890,405.0,419.0
1587,1685095163890,365.0,438.0
1588,1685095163921,461.0,462.0
1589,1685095163921,350.0,459.0
1590,1685095163921,469.0,450.0
1591,1685095163921,379.0,479.0
1592,1685095163966,477.0,416.0
1593,1685095163966,426.0,477.0
1594,1685095163966,461.0,395.0
1595,1685095163997,473.0,429.0
1596,1685095163997,490.0,429.0
1597,1685095163997,400.0,357.0
1598,1685095163997,543.0,467.0
1599,1685095164032,449.0,406.0
1600,1685095164032,368.0,398.0
1601,1685095164032,475.0,431.0
1602,1685095164065,390.0,451.0
1603,1685095164065,401.0,447.0
1604,1685095164065,333.0,431.0
1605,1685095164065,463.0,471.0
1606,1685095164095,357.0,466.0
1607,1685095164095,471.0,438.0
1608,1685095164095,390.0,464.0
1609,1685095164127,481.0,407.0
1610,1685095164127,463.0,472.0
1611,1685095164127,465.0,397.0
1612,1685095164127,469.0,413.0
1613,1685095164158,520.0,448.0
1614,1685095164158,377.0,358.0
1615,1685095164158,500.0,454.0
1616,1685095164189,501.0,444.0
1617,1685095164189,371.0,423.0
1618,1685095164189,419.0,415.0
1619,1685095164189,386.0,438.0
1620,1685095164221,426.0,462.0
1621,1685095164221,316.0,433.0
1622,1685095164221,465.0,468.0
1623,1685095164221,388.0,476.0
1624,1685095164266,487.0,440.0
1625,1685095164266,423.0,476.0
1626,1685095164266,491.0,417.0
1627,1685095164298,479.0,471.0
1628,1685095164298,474.0,412.0
1629,1685095164298,431.0,389.0
1630,1685095164298,535.0,462.0
1631,1685095164333,388.0,377.0
1632,1685095164333,444.0,431.0
1633,1685095164333,510.0,455.0
1634,1685095164364,379.0,433.0
1635,1685095164364,390.0,421.0
1636,1685095164364,344.0,432.0
1637,1685095164364,463.0,467.0
1638,1685095164395,350.0,457.0
1639,1685095164395,478.0,450.0
1640,1685095164395,394.0,477.0
1641,1685095164427,492.0,436.0
1642,1685095164427,430.0,474.0
1643,1685095164427,465.0,404.0
1644,1685095164427,474.0,443.0
1645,1685095164460,482.0,421.0
1646,1685095164460,393.0,361.0
1647,1685095164460,541.0,470.0
1648,1685095164490,436.0,404.0
1649,1685095164490,372.0,401.0
1650,1685095164490,485.0,433.0
1651,1685095164490,402.0,452.0
1652,1685095164522,417.0,429.0
1653,1685095164522,335.0,429.0
1654,1685095164522,463.0,469.0
1655,1685095164522,371.0,465.0
1656,1685095164567,470.0,443.0
1657,1685095164567,397.0,461.0
1658,1685095164567,480.0,417.0
1659,1685095164599,440.0,464.0
1660,1685095164599,460.0,398.0
1661,1685095164599,458.0,416.0
1662,1685095164599,522.0,450.0
1663,1685095164633,375.0,349.0
1664,1685095164633,517.0,464.0
1665,1685095164633,514.0,451.0
1666,1685095164665,365.0,412.0
1667,1685095164665,432.0,422.0
1668,1685095164665,385.0,443.0
1669,1685095164665,423.0,449.0
1670,1685095164696,334.0,434.0
1671,1685095164696,456.0,453.0
1672,1685095164696,372.0,474.0
1673,1685095164729,481.0,432.0
1674,1685095164729,409.0,479.0
1675,1685095164729,490.0,404.0
1676,1685095164729,482.0,466.0
1677,1685095164759,472.0,405.0
1678,1685095164759,439.0,390.0
1679,1685095164759,537.0,465.0
1680,1685095164790,390.0,373.0
1681,1685095164790,452.0,436.0
1682,1685095164790,511.0,449.0
1683,1685095164790,373.0,432.0
1684,1685095164822,387.0,414.0
1685,1685095164822,348.0,427.0
1686,1685095164822,437.0,453.0
1687,1685095164822,348.0,459.0
1688,1685095164867,484.0,460.0
1689,1685095164867,397.0,501.0
1690,1685095164867,496.0,417.0
1691,1685095164900,439.0,486.0
1692,1685095164900,479.0,402.0
1693,1685095164900,486.0,444.0
1694,1685095164900,475.0,423.0
1695,1685095164934,390.0,359.0
1696,1685095164934,537.0,478.0
1697,1685095164934,422.0,393.0
1698,1685095164965,370.0,399.0
1699,1685095164965,474.0,436.0
1700,1685095164965,392.0,451.0
1701,1685095164965,397.0,436.0
1702,1685095164996,342.0,435.0
1703,1685095164996,468.0,464.0
1704,1685095164996,362.0,460.0
1705,1685095165028,486.0,447.0
1706,1685095165028,392.0,471.0
1707,1685095165028,491.0,419.0
1708,1685095165028,444.0,471.0
1709,1685095165061,451.0,400.0
1710,1685095165061,460.0,407.0
1711,1685095165061,517.0,452.0
1712,1685095165095,364.0,353.0
1713,1685095165095,511.0,454.0
1714,1685095165095,508.0,442.0
1715,1685095165095,363.0,404.0
1716,1685095165123,444.0,420.0
1717,1685095165123,383.0,435.0
1718,1685095165123,438.0,459.0
1719,1685095165123,339.0,435.0
1720,1685095165167,473.0,459.0
1721,1685095165167,377.0,479.0
1722,1685095165167,471.0,429.0
1723,1685095165200,405.0,467.0
1724,1685095165200,472.0,410.0
1725,1685095165200,463.0,451.0
1726,1685095165200,467.0,407.0
1727,1685095165235,449.0,387.0
1728,1685095165235,546.0,472.0
1729,1685095165235,403.0,376.0
1730,1685095165267,454.0,425.0
1731,1685095165267,517.0,455.0
1732,1685095165267,393.0,435.0
1733,1685095165267,398.0,407.0
1734,1685095165299,361.0,438.0
1735,1685095165299,445.0,456.0
1736,1685095165299,327.0,445.0
1737,1685095165330,484.0,449.0
1738,1685095165330,386.0,473.0
1739,1685095165330,483.0,432.0
1740,1685095165330,425.0,453.0
1741,1685095165361,474.0,406.0
1742,1685095165361,484.0,450.0
1743,1685095165361,481.0,418.0
1744,1685095165393,403.0,367.0
1745,1685095165393,553.0,469.0
1746,1685095165393,439.0,404.0
1747,1685095165393,377.0,404.0
1748,1685095165425,478.0,428.0
1749,1685095165425,391.0,446.0
1750,1685095165425,389.0,414.0
1751,1685095165425,333.0,424.0
1752,1685095165469,463.0,459.0
1753,1685095165469,356.0,466.0
1754,1685095165469,481.0,445.0
1755,1685095165500,401.0,484.0
1756,1685095165500,495.0,430.0
1757,1685095165500,455.0,475.0
1758,1685095165500,462.0,418.0
1759,1685095165536,462.0,414.0
1760,1685095165536,511.0,448.0
1761,1685095165536,371.0,361.0
1762,1685095165567,507.0,449.0
1763,1685095165567,486.0,433.0
1764,1685095165567,357.0,409.0
1765,1685095165567,435.0,416.0
1766,1685095165599,381.0,441.0
1767,1685095165599,426.0,446.0
1768,1685095165599,342.0,443.0
1769,1685095165632,478.0,463.0
1770,1685095165632,387.0,481.0
1771,1685095165632,482.0,432.0
1772,1685095165632,405.0,470.0
1773,1685095165662,483.0,408.0
1774,1685095165662,461.0,455.0
1775,1685095165662,462.0,402.0
1776,1685095165694,441.0,394.0
1777,1685095165694,536.0,466.0
1778,1685095165694,389.0,375.0
1779,1685095165694,456.0,427.0
1780,1685095165725,522.0,461.0
1781,1685095165725,389.0,431.0
1782,1685095165725,414.0,418.0
1783,1685095165725,368.0,440.0
1784,1685095165770,457.0,465.0
1785,1685095165770,344.0,449.0
1786,1685095165770,477.0,467.0
1787,1685095165801,384.0,470.0
1788,1685095165801,484.0,429.0
1789,1685095165801,420.0,475.0
1790,1685095165801,471.0,404.0
1791,1685095165836,480.0,431.0
1792,1685095165836,475.0,425.0
1793,1685095165836,399.0,360.0
1794,1685095165868,545.0,480.0
1795,1685095165868,433.0,403.0
1796,1685095165868,389.0,412.0
1797,1685095165868,491.0,431.0
1798,1685095165902,396.0,443.0
1799,1685095165902,402.0,424.0
1800,1685095165902,336.0,426.0
1801,1685095165931,456.0,460.0
1802,1685095165931,350.0,456.0
1803,1685095165931,470.0,441.0
1804,1685095165931,395.0,472.0
1805,1685095165965,502.0,432.0
1806,1685095165965,456.0,475.0
1807,1685095165965,468.0,398.0
1808,1685095165994,477.0,417.0
1809,1685095165994,518.0,454.0
1810,1685095165994,384.0,356.0
1811,1685095165994,520.0,455.0
1812,1685095166027,476.0,436.0
1813,1685095166027,359.0,408.0
1814,1685095166027,431.0,416.0
1815,1685095166027,377.0,441.0
1816,1685095166070,409.0,450.0
1817,1685095166070,326.0,434.0
1818,1685095166070,469.0,469.0
1819,1685095166101,379.0,478.0
1820,1685095166101,480.0,437.0
1821,1685095166101,410.0,477.0
1822,1685095166101,492.0,411.0
1823,1685095166136,479.0,467.0
1824,1685095166136,469.0,400.0
1825,1685095166136,459.0,389.0
1826,1685095166168,540.0,467.0
1827,1685095166168,354.0,352.0
1828,1685095166168,461.0,424.0
1829,1685095166168,511.0,459.0
1830,1685095166201,385.0,431.0
1831,1685095166201,400.0,413.0
1832,1685095166201,372.0,438.0
1833,1685095166231,458.0,465.0
1834,1685095166231,344.0,437.0
1835,1685095166231,483.0,461.0
1836,1685095166231,400.0,473.0
1837,1685095166265,471.0,422.0
1838,1685095166265,417.0,474.0
1839,1685095166265,471.0,404.0
1840,1685095166294,472.0,437.0
1841,1685095166294,479.0,423.0
1842,1685095166294,402.0,358.0
1843,1685095166294,547.0,469.0
1844,1685095166325,419.0,392.0
1845,1685095166325,417.0,408.0
1846,1685095166325,491.0,439.0
1847,1685095166325,403.0,442.0
1848,1685095166371,409.0,435.0
1849,1685095166371,342.0,425.0
1850,1685095166371,453.0,466.0
1851,1685095166402,355.0,463.0
1852,1685095166402,451.0,437.0
1853,1685095166402,383.0,469.0
1854,1685095166402,473.0,418.0
1855,1685095166438,440.0,461.0
1856,1685095166438,462.0,413.0
1857,1685095166438,481.0,429.0
1858,1685095166469,511.0,447.0
1859,1685095166469,398.0,367.0
1860,1685095166469,549.0,462.0
1861,1685095166469,469.0,425.0
1862,1685095166500,377.0,408.0
1863,1685095166500,443.0,416.0
1864,1685095166500,390.0,434.0
1865,1685095166532,404.0,447.0
1866,1685095166532,329.0,435.0
1867,1685095166532,448.0,466.0
1868,1685095166532,369.0,482.0
1869,1685095166563,472.0,456.0
1870,1685095166563,417.0,476.0
1871,1685095166563,493.0,420.0
1872,1685095166603,474.0,457.0
1873,1685095166603,477.0,417.0
1874,1685095166603,461.0,402.0
1875,1685095166603,539.0,462.0
1876,1685095166626,387.0,376.0
1877,1685095166626,487.0,420.0
1878,1685095166626,491.0,444.0
1879,1685095166626,374.0,420.0
1880,1685095166674,405.0,420.0
1881,1685095166674,378.0,433.0
1882,1685095166674,433.0,466.0
1883,1685095166689,339.0,436.0
1884,1685095166689,470.0,453.0
1885,1685095166689,391.0,480.0
1886,1685095166689,483.0,431.0
1887,1685095166741,418.0,462.0
1888,1685095166741,484.0,414.0
1889,1685095166741,480.0,446.0
1890,1685095166772,477.0,424.0
1891,1685095166772,411.0,377.0
1892,1685095166772,535.0,463.0
1893,1685095166772,387.0,386.0
1894,1685095166804,432.0,409.0
1895,1685095166804,482.0,438.0
1896,1685095166804,406.0,433.0
1897,1685095166835,399.0,428.0
1898,1685095166835,371.0,433.0
1899,1685095166835,459.0,465.0
1900,1685095166835,362.0,462.0
1901,1685095166866,472.0,448.0
1902,1685095166866,386.0,469.0
1903,1685095166866,471.0,417.0
1904,1685095166898,433.0,469.0
1905,1685095166898,458.0,390.0
1906,1685095166898,471.0,432.0
1907,1685095166898,500.0,435.0
1908,1685095166930,388.0,359.0
1909,1685095166930,551.0,469.0
1910,1685095166930,453.0,417.0
1911,1685095166930,383.0,397.0
1912,1685095166971,449.0,430.0
1913,1685095166971,403.0,440.0
1914,1685095166971,400.0,434.0
1915,1685095167003,323.0,422.0
1916,1685095167003,441.0,453.0
1917,1685095167003,359.0,457.0
1918,1685095167003,460.0,433.0
1919,1685095167041,394.0,478.0
1920,1685095167041,478.0,417.0
1921,1685095167041,478.0,474.0
1922,1685095167058,464.0,397.0
1923,1685095167058,474.0,419.0
1924,1685095167058,545.0,468.0
1925,1685095167058,388.0,365.0
1926,1685095167104,518.0,450.0
1927,1685095167104,493.0,456.0
1928,1685095167104,384.0,414.0
1929,1685095167136,389.0,405.0
1930,1685095167136,371.0,436.0
1931,1685095167136,411.0,448.0
1932,1685095167136,323.0,446.0
1933,1685095167167,456.0,456.0
1934,1685095167167,376.0,475.0
1935,1685095167167,473.0,434.0
1936,1685095167203,434.0,490.0
1937,1685095167203,485.0,406.0
1938,1685095167203,501.0,448.0
1939,1685095167203,486.0,420.0
1940,1685095167231,432.0,375.0
1941,1685095167231,554.0,459.0
1942,1685095167231,389.0,380.0
1943,1685095167231,436.0,416.0
1944,1685095167272,468.0,433.0
1945,1685095167272,405.0,438.0
1946,1685095167272,383.0,419.0
1947,1685095167303,340.0,422.0
1948,1685095167303,437.0,462.0
1949,1685095167303,354.0,452.0
1950,1685095167303,481.0,462.0
1951,1685095167341,390.0,466.0
1952,1685095167341,479.0,422.0
1953,1685095167341,437.0,467.0
1954,1685095167372,464.0,397.0
1955,1685095167372,480.0,426.0
1956,1685095167372,492.0,427.0
1957,1685095167372,392.0,356.0
1958,1685095167404,552.0,460.0
1959,1685095167404,441.0,421.0
1960,1685095167404,396.0,395.0
1961,1685095167435,457.0,438.0
1962,1685095167435,411.0,433.0
1963,1685095167435,399.0,443.0
1964,1685095167435,339.0,441.0
1965,1685095167467,451.0,458.0
1966,1685095167467,360.0,467.0
1967,1685095167467,452.0,429.0
1968,1685095167498,385.0,465.0
1969,1685095167498,474.0,417.0
1970,1685095167498,456.0,470.0
1971,1685095167498,459.0,401.0
1972,1685095167531,476.0,411.0
1973,1685095167531,538.0,461.0
1974,1685095167531,376.0,362.0
1975,1685095167531,537.0,448.0
1976,1685095167573,500.0,453.0
1977,1685095167573,395.0,421.0
1978,1685095167573,407.0,405.0
1979,1685095167604,385.0,454.0
1980,1685095167604,421.0,464.0
1981,1685095167604,323.0,423.0
1982,1685095167604,452.0,457.0
1983,1685095167640,366.0,470.0
1984,1685095167640,466.0,430.0
1985,1685095167640,420.0,474.0
1986,1685095167671,481.0,408.0
1987,1685095167671,490.0,462.0
1988,1685095167671,491.0,421.0
1989,1685095167671,433.0,373.0
1990,1685095167703,562.0,467.0
1991,1685095167703,390.0,373.0
1992,1685095167703,451.0,420.0
1993,1685095167735,479.0,443.0
1994,1685095167735,398.0,429.0
1995,1685095167735,371.0,415.0
1996,1685095167735,346.0,426.0
1997,1685095167766,431.0,459.0
1998,1685095167766,341.0,451.0
1999,1685095167766,473.0,465.0
2000,1685095167800,400.0,481.0
2001,1685095167800,491.0,430.0
2002,1685095167800,443.0,475.0
2003,1685095167800,475.0,408.0
2004,1685095167829,495.0,436.0
2005,1685095167829,485.0,424.0
2006,1685095167829,400.0,354.0
2007,1685095167829,542.0,459.0
2008,1685095167874,416.0,407.0
2009,1685095167874,389.0,399.0
2010,1685095167874,448.0,429.0
2011,1685095167906,410.0,448.0
2012,1685095167906,406.0,441.0
2013,1685095167906,340.0,437.0
2014,1685095167906,460.0,475.0
2015,1685095167940,356.0,461.0
2016,1685095167940,467.0,445.0
2017,1685095167940,398.0,467.0
2018,1685095167971,474.0,415.0
2019,1685095167971,451.0,467.0
2020,1685095167971,452.0,399.0
2021,1685095167971,462.0,420.0
2022,1685095168003,529.0,444.0
2023,1685095168003,378.0,357.0
2024,1685095168003,532.0,454.0
2025,1685095168034,496.0,450.0
2026,1685095168034,402.0,416.0
2027,1685095168034,422.0,413.0
2028,1685095168034,394.0,442.0
2029,1685095168066,419.0,455.0
2030,1685095168066,334.0,441.0
2031,1685095168066,465.0,452.0
2032,1685095168097,368.0,471.0
2033,1685095168097,461.0,438.0
2034,1685095168097,400.0,463.0
2035,1685095168097,479.0,416.0
2036,1685095168129,481.0,452.0
2037,1685095168129,485.0,418.0
2038,1685095168129,444.0,392.0
2039,1685095168129,561.0,466.0
2040,1685095168175,395.0,383.0
2041,1685095168175,469.0,419.0
2042,1685095168175,489.0,447.0
2043,1685095168206,399.0,431.0
2044,1685095168206,381.0,414.0
2045,1685095168206,362.0,434.0
2046,1685095168206,425.0,459.0
2047,1685095168241,331.0,439.0
2048,1685095168241,474.0,456.0
2049,1685095168241,390.0,481.0
2050,1685095168272,480.0,435.0
2051,1685095168272,449.0,470.0
2052,1685095168272,484.0,411.0
2053,1685095168272,490.0,448.0
2054,1685095168304,501.0,425.0
2055,1685095168304,404.0,355.0
2056,1685095168304,556.0,465.0
2057,1685095168336,417.0,410.0
2058,1685095168336,401.0,406.0
2059,1685095168336,438.0,430.0
2060,1685095168336,394.0,439.0
2061,1685095168367,385.0,429.0
2062,1685095168367,333.0,426.0
2063,1685095168367,457.0,459.0
2064,1685095168398,353.0,458.0
2065,1685095168398,467.0,451.0
2066,1685095168398,398.0,469.0
2067,1685095168398,485.0,427.0
2068,1685095168430,464.0,463.0
2069,1685095168430,461.0,404.0
2070,1685095168430,466.0,402.0
2071,1685095168430,519.0,451.0
2072,1685095168475,377.0,358.0
2073,1685095168475,525.0,444.0
2074,1685095168475,482.0,443.0
2075,1685095168506,383.0,418.0
2076,1685095168506,416.0,402.0
2077,1685095168506,399.0,461.0
2078,1685095168506,424.0,446.0
2079,1685095168542,327.0,432.0
2080,1685095168542,466.0,474.0
2081,1685095168542,370.0,465.0
2082,1685095168573,462.0,427.0
2083,1685095168573,402.0,469.0
2084,1685095168573,471.0,403.0
2085,1685095168573,482.0,458.0
2086,1685095168608,467.0,414.0
2087,1685095168608,445.0,383.0
2088,1685095168608,562.0,473.0
2089,1685095168637,391.0,373.0
2090,1685095168637,485.0,431.0
2091,1685095168637,498.0,444.0
2092,1685095168637,401.0,430.0
2093,1685095168671,393.0,425.0
2094,1685095168671,357.0,434.0
2095,1685095168671,445.0,476.0
2096,1685095168700,334.0,443.0
2097,1685095168700,462.0,460.0
2098,1685095168700,381.0,473.0
2099,1685095168700,476.0,418.0
2100,1685095168732,431.0,475.0
2101,1685095168732,476.0,399.0
2102,1685095168732,492.0,443.0
2103,1685095168732,501.0,428.0
2104,1685095168776,409.0,361.0
2105,1685095168776,561.0,474.0
2106,1685095168776,423.0,405.0
2107,1685095168808,405.0,406.0
2108,1685095168808,456.0,426.0
2109,1685095168808,398.0,440.0
2110,1685095168808,386.0,430.0
2111,1685095168843,328.0,419.0
2112,1685095168843,453.0,472.0
2113,1685095168843,346.0,462.0
2114,1685095168875,462.0,435.0
2115,1685095168875,399.0,478.0
2116,1685095168875,490.0,424.0
2117,1685095168875,458.0,471.0
2118,1685095168905,474.0,402.0
2119,1685095168905,479.0,405.0
2120,1685095168905,522.0,448.0
2121,1685095168937,379.0,360.0
2122,1685095168937,534.0,449.0
2123,1685095168937,467.0,432.0
2124,1685095168937,384.0,412.0
2125,1685095168972,424.0,420.0
2126,1685095168972,387.0,433.0
2127,1685095168972,414.0,457.0
2128,1685095169000,315.0,434.0
2129,1685095169000,466.0,454.0
2130,1685095169000,374.0,478.0
2131,1685095169000,473.0,426.0
2132,1685095169032,403.0,475.0
2133,1685095169032,476.0,406.0
2134,1685095169032,479.0,460.0
2135,1685095169032,473.0,409.0
2136,1685095169076,463.0,400.0
2137,1685095169076,552.0,461.0
2138,1685095169076,378.0,369.0
2139,1685095169107,486.0,432.0
2140,1685095169107,495.0,445.0
2141,1685095169107,392.0,444.0
2142,1685095169107,397.0,422.0
2143,1685095169143,360.0,430.0
2144,1685095169143,444.0,476.0
2145,1685095169143,326.0,441.0
2146,1685095169174,464.0,459.0
2147,1685095169174,379.0,466.0
2148,1685095169174,474.0,420.0
2149,1685095169174,436.0,477.0
2150,1685095169208,481.0,404.0
2151,1685095169208,485.0,447.0
2152,1685095169208,494.0,428.0
2153,1685095169239,406.0,362.0
2154,1685095169239,550.0,470.0
2155,1685095169239,421.0,405.0
2156,1685095169239,410.0,412.0
2157,1685095169270,467.0,431.0
2158,1685095169270,399.0,446.0
2159,1685095169270,385.0,422.0
2160,1685095169302,339.0,436.0
2161,1685095169302,456.0,469.0
2162,1685095169302,352.0,459.0
2163,1685095169302,466.0,444.0
2164,1685095169333,384.0,466.0
2165,1685095169333,479.0,414.0
2166,1685095169333,454.0,462.0
2167,1685095169333,463.0,402.0
2168,1685095169377,478.0,416.0
2169,1685095169377,516.0,452.0
2170,1685095169377,384.0,353.0
2171,1685095169408,545.0,472.0
2172,1685095169408,461.0,418.0
2173,1685095169408,389.0,416.0
2174,1685095169408,431.0,417.0
2175,1685095169444,397.0,443.0
2176,1685095169444,409.0,450.0
2177,1685095169444,315.0,428.0
2178,1685095169477,453.0,467.0
2179,1685095169477,368.0,467.0
2180,1685095169477,471.0,442.0
2181,1685095169477,403.0,466.0
2182,1685095169507,489.0,412.0
2183,1685095169507,474.0,458.0
2184,1685095169507,482.0,409.0
2185,1685095169539,466.0,402.0
2186,1685095169539,548.0,464.0
2187,1685095169539,382.0,372.0
2188,1685095169539,490.0,440.0
2189,1685095169570,488.0,444.0
2190,1685095169570,380.0,434.0
2191,1685095169570,385.0,420.0
2192,1685095169602,357.0,425.0
2193,1685095169602,428.0,466.0
2194,1685095169602,319.0,435.0
2195,1685095169602,470.0,462.0
2196,1685095169634,383.0,468.0
2197,1685095169634,486.0,433.0
2198,1685095169634,441.0,481.0
2199,1685095169634,484.0,402.0
2200,1685095169678,493.0,459.0
2201,1685095169678,484.0,417.0
2202,1685095169678,408.0,363.0
2203,1685095169710,552.0,461.0
2204,1685095169710,403.0,387.0
2205,1685095169710,415.0,412.0
2206,1685095169710,478.0,435.0
2207,1685095169745,392.0,429.0
2208,1685095169745,377.0,432.0
2209,1685095169745,341.0,428.0
2210,1685095169777,463.0,471.0
2211,1685095169777,358.0,477.0
2212,1685095169777,467.0,443.0
2213,1685095169777,393.0,472.0
2214,1685095169810,470.0,418.0
2215,1685095169810,442.0,462.0
2216,1685095169810,468.0,400.0
2217,1685095169841,474.0,417.0
2218,1685095169841,513.0,437.0
2219,1685095169841,384.0,352.0
2220,1685095169841,553.0,466.0
2221,1685095169872,465.0,417.0
2222,1685095169872,381.0,410.0
2223,1685095169872,445.0,419.0
2224,1685095169904,390.0,443.0
2225,1685095169904,405.0,441.0
2226,1685095169904,321.0,430.0
2227,1685095169904,446.0,445.0
2228,1685095169935,362.0,480.0
2229,1685095169935,459.0,430.0
2230,1685095169935,394.0,483.0
2231,1685095169935,480.0,402.0
2232,1685095169978,476.0,470.0
2233,1685095169978,478.0,404.0
2234,1685095169978,466.0,399.0
2235,1685095170010,541.0,460.0
2236,1685095170010,388.0,360.0
2237,1685095170010,505.0,444.0
2238,1685095170010,501.0,455.0
2239,1685095170045,384.0,423.0
2240,1685095170045,393.0,418.0
2241,1685095170045,362.0,432.0
2242,1685095170076,429.0,464.0
2243,1685095170076,314.0,420.0
2244,1685095170076,460.0,474.0
2245,1685095170076,383.0,469.0
2246,1685095170109,488.0,437.0
2247,1685095170109,433.0,468.0
2248,1685095170109,493.0,413.0
2249,1685095170141,497.0,464.0
2250,1685095170141,486.0,414.0
2251,1685095170141,422.0,363.0
2252,1685095170141,561.0,467.0
2253,1685095170171,399.0,387.0
2254,1685095170171,426.0,411.0
2255,1685095170171,474.0,448.0
2256,1685095170209,389.0,436.0
2257,1685095170209,377.0,415.0
2258,1685095170209,333.0,425.0
2259,1685095170209,435.0,462.0
2260,1685095170236,353.0,462.0
2261,1685095170236,479.0,468.0
2262,1685095170236,386.0,481.0
2263,1685095170236,485.0,431.0
2264,1685095170279,441.0,468.0
2265,1685095170279,474.0,394.0
2266,1685095170279,481.0,432.0
2267,1685095170310,498.0,432.0
2268,1685095170310,386.0,355.0
2269,1685095170310,533.0,460.0
2270,1685095170310,443.0,421.0
2271,1685095170345,367.0,393.0
2272,1685095170345,447.0,422.0
2273,1685095170345,383.0,442.0
2274,1685095170378,393.0,435.0
2275,1685095170378,335.0,452.0
2276,1685095170378,458.0,458.0
2277,1685095170378,359.0,468.0
2278,1685095170408,470.0,444.0
2279,1685095170408,395.0,461.0
2280,1685095170408,479.0,410.0
2281,1685095170440,462.0,461.0
2282,1685095170440,462.0,396.0
2283,1685095170440,466.0,403.0
2284,1685095170440,537.0,464.0
2285,1685095170471,373.0,349.0
2286,1685095170471,514.0,455.0
2287,1685095170471,509.0,445.0
2288,1685095170503,389.0,432.0
2289,1685095170503,412.0,413.0
2290,1685095170503,393.0,453.0
2291,1685095170503,425.0,447.0
2292,1685095170536,335.0,444.0
2293,1685095170536,459.0,456.0
2294,1685095170536,361.0,461.0
2295,1685095170536,467.0,430.0
2296,1685095170580,411.0,467.0
2297,1685095170580,482.0,412.0
2298,1685095170580,496.0,458.0
2299,1685095170611,488.0,420.0
2300,1685095170611,446.0,381.0
2301,1685095170611,570.0,476.0
2302,1685095170611,404.0,385.0
2303,1685095170646,442.0,419.0
2304,1685095170646,497.0,455.0
2305,1685095170646,389.0,433.0
2306,1685095170678,374.0,417.0
2307,1685095170678,328.0,427.0
2308,1685095170678,427.0,458.0
2309,1685095170678,331.0,458.0
2310,1685095170711,474.0,453.0
2311,1685095170711,389.0,479.0
2312,1685095170711,500.0,436.0
2313,1685095170743,448.0,475.0
2314,1685095170743,487.0,405.0
2315,1685095170743,498.0,446.0
2316,1685095170743,496.0,420.0
2317,1685095170776,391.0,366.0
2318,1685095170776,536.0,458.0
2319,1685095170776,432.0,413.0
2320,1685095170804,374.0,395.0
2321,1685095170804,441.0,427.0
2322,1685095170804,381.0,432.0
2323,1685095170804,388.0,434.0
2324,1685095170836,332.0,443.0
2325,1685095170836,471.0,469.0
2326,1685095170836,370.0,473.0
2327,1685095170836,476.0,444.0
2328,1685095170880,408.0,472.0
2329,1685095170880,490.0,415.0
2330,1685095170880,460.0,469.0
2331,1685095170913,459.0,391.0
2332,1685095170913,460.0,399.0
2333,1685095170913,524.0,461.0
2334,1685095170913,363.0,346.0
2335,1685095170947,507.0,447.0
2336,1685095170947,503.0,446.0
2337,1685095170947,382.0,423.0
2338,1685095170979,424.0,422.0
2339,1685095170979,395.0,447.0
2340,1685095170979,434.0,468.0
2341,1685095170979,342.0,439.0
2342,1685095171011,466.0,468.0
2343,1685095171011,374.0,477.0
2344,1685095171011,456.0,419.0
2345,1685095171045,396.0,472.0
2346,1685095171045,470.0,406.0
2347,1685095171045,475.0,452.0
2348,1685095171045,480.0,417.0
2349,1685095171074,445.0,392.0
2350,1685095171074,556.0,475.0
2351,1685095171074,412.0,379.0
2352,1685095171105,462.0,433.0
2353,1685095171105,508.0,453.0
2354,1685095171105,393.0,430.0
2355,1685095171105,389.0,416.0
2356,1685095171137,356.0,437.0
2357,1685095171137,433.0,452.0
2358,1685095171137,318.0,444.0
2359,1685095171137,467.0,458.0
2360,1685095171181,380.0,480.0
2361,1685095171181,495.0,429.0
2362,1685095171181,439.0,477.0
2363,1685095171213,490.0,408.0
2364,1685095171213,496.0,440.0
2365,1685095171213,501.0,427.0
2366,1685095171213,401.0,363.0
2367,1685095171247,554.0,468.0
2368,1685095171247,438.0,415.0
2369,1685095171247,375.0,398.0
2370,1685095171278,452.0,433.0
2371,1685095171278,381.0,432.0
2372,1685095171278,372.0,424.0
2373,1685095171278,322.0,425.0
2374,1685095171310,457.0,467.0
2375,1685095171310,363.0,481.0
2376,1685095171310,483.0,447.0
2377,1685095171341,407.0,468.0
2378,1685095171341,504.0,431.0
2379,1685095171341,462.0,461.0
2380,1685095171341,459.0,400.0
2381,1685095171372,467.0,408.0
2382,1685095171372,514.0,438.0
2383,1685095171372,371.0,359.0
2384,1685095171405,510.0,449.0
2385,1685095171405,478.0,430.0
2386,1685095171405,372.0,421.0
2387,1685095171405,421.0,413.0
2388,1685095171435,393.0,451.0
2389,1685095171435,426.0,448.0
2390,1685095171435,345.0,439.0
2391,1685095171435,478.0,469.0
2392,1685095171481,379.0,466.0
2393,1685095171481,471.0,430.0
2394,1685095171481,393.0,462.0
2395,1685095171513,469.0,397.0
2396,1685095171513,463.0,458.0
2397,1685095171513,463.0,406.0
2398,1685095171513,448.0,395.0
2399,1685095171548,548.0,461.0
2400,1685095171548,393.0,374.0
2401,1685095171548,471.0,438.0
2402,1685095171579,520.0,445.0
2403,1685095171579,398.0,430.0
2404,1685095171579,405.0,421.0
2405,1685095171579,366.0,444.0
2406,1685095171610,441.0,469.0
2407,1685095171610,328.0,449.0
2408,1685095171610,454.0,458.0
2409,1685095171643,380.0,461.0
2410,1685095171643,475.0,432.0
2411,1685095171643,422.0,469.0
2412,1685095171643,481.0,407.0
2413,1685095171675,495.0,438.0
2414,1685095171675,498.0,431.0
2415,1685095171675,419.0,371.0
2416,1685095171705,564.0,469.0
2417,1685095171705,433.0,401.0
2418,1685095171705,399.0,400.0
2419,1685095171705,466.0,438.0
2420,1685095171747,385.0,443.0
2421,1685095171747,368.0,426.0
2422,1685095171747,322.0,422.0
2423,1685095171747,446.0,468.0
2424,1685095171782,351.0,468.0
2425,1685095171782,470.0,451.0
2426,1685095171782,399.0,467.0
2427,1685095171815,502.0,428.0
2428,1685095171815,474.0,483.0
2429,1685095171815,478.0,391.0
2430,1685095171815,479.0,428.0
2431,1685095171849,518.0,439.0
2432,1685095171849,374.0,365.0
2433,1685095171849,522.0,457.0
2434,1685095171880,464.0,435.0
2435,1685095171880,357.0,398.0
2436,1685095171880,429.0,429.0
2437,1685095171880,388.0,447.0
2438,1685095171912,414.0,449.0
2439,1685095171912,322.0,436.0
2440,1685095171912,462.0,469.0
2441,1685095171943,388.0,484.0
2442,1685095171943,488.0,432.0
2443,1685095171943,404.0,471.0
2444,1685095171943,479.0,404.0
2445,1685095171975,471.0,456.0
2446,1685095171975,462.0,407.0
2447,1685095171975,458.0,396.0
2448,1685095172007,529.0,457.0
2449,1685095172007,375.0,382.0
2450,1685095172007,478.0,435.0
2451,1685095172007,508.0,449.0
2452,1685095172038,396.0,430.0
2453,1685095172038,397.0,406.0
2454,1685095172038,365.0,435.0
2455,1685095172038,450.0,456.0
2456,1685095172083,332.0,451.0
2457,1685095172083,457.0,454.0
2458,1685095172083,373.0,464.0
2459,1685095172114,471.0,427.0
2460,1685095172114,421.0,479.0
2461,1685095172114,474.0,408.0
2462,1685095172114,489.0,446.0
2463,1685095172150,495.0,431.0
2464,1685095172150,417.0,361.0
2465,1685095172150,558.0,471.0
2466,1685095172182,417.0,394.0
2467,1685095172182,417.0,409.0
2468,1685095172182,484.0,433.0
2469,1685095172182,398.0,447.0
2470,1685095172212,390.0,428.0
2471,1685095172212,338.0,426.0
2472,1685095172212,446.0,459.0
2473,1685095172244,359.0,475.0
2474,1685095172244,462.0,446.0
2475,1685095172244,389.0,469.0
2476,1685095172244,494.0,422.0
2477,1685095172276,452.0,465.0
2478,1685095172276,476.0,405.0
2479,1685095172276,479.0,422.0
2480,1685095172308,501.0,434.0
2481,1685095172308,392.0,363.0
2482,1685095172308,541.0,455.0
2483,1685095172308,467.0,430.0
2484,1685095172340,362.0,409.0
2485,1685095172340,439.0,422.0
2486,1685095172340,386.0,446.0
2487,1685095172340,403.0,440.0
2488,1685095172384,317.0,438.0
2489,1685095172384,454.0,459.0
2490,1685095172384,372.0,479.0
2491,1685095172416,478.0,438.0
2492,1685095172416,407.0,475.0
2493,1685095172416,500.0,424.0
2494,1685095172416,470.0,458.0
2495,1685095172450,472.0,404.0
2496,1685095172450,467.0,394.0
2497,1685095172450,529.0,454.0
2498,1685095172482,379.0,367.0
2499,1685095172482,495.0,437.0
2500,1685095172482,495.0,449.0
2501,1685095172482,382.0,424.0
2502,1685095172513,390.0,410.0
2503,1685095172513,357.0,433.0
2504,1685095172513,442.0,456.0
2505,1685095172545,331.0,452.0
2506,1685095172545,466.0,453.0
2507,1685095172545,380.0,479.0
2508,1685095172545,489.0,433.0
2509,1685095172576,426.0,478.0
2510,1685095172576,480.0,397.0
2511,1685095172576,480.0,455.0
2512,1685095172607,488.0,425.0
2513,1685095172607,427.0,372.0
2514,1685095172607,549.0,472.0
2515,1685095172607,402.0,382.0
2516,1685095172639,420.0,408.0
2517,1685095172639,501.0,465.0
2518,1685095172639,400.0,437.0
2519,1685095172639,388.0,421.0
2520,1685095172684,350.0,432.0
2521,1685095172684,453.0,462.0
2522,1685095172684,353.0,469.0
2523,1685095172715,467.0,441.0
2524,1685095172715,378.0,470.0
2525,1685095172715,482.0,428.0
2526,1685095172715,435.0,462.0
2527,1685095172750,473.0,413.0
2528,1685095172750,473.0,419.0
2529,1685095172750,493.0,437.0
2530,1685095172782,390.0,352.0
2531,1685095172782,559.0,483.0
2532,1685095172782,464.0,424.0
2533,1685095172782,372.0,401.0
2534,1685095172813,451.0,436.0
2535,1685095172813,403.0,451.0
2536,1685095172813,400.0,433.0
2537,1685095172845,321.0,432.0
2538,1685095172845,453.0,464.0
2539,1685095172845,356.0,467.0
2540,1685095172845,468.0,437.0
2541,1685095172876,405.0,471.0
2542,1685095172876,491.0,410.0
2543,1685095172876,464.0,470.0
2544,1685095172908,468.0,407.0
2545,1685095172908,473.0,412.0
2546,1685095172908,533.0,462.0
2547,1685095172908,386.0,370.0
2548,1685095172939,507.0,449.0
2549,1685095172939,504.0,454.0
2550,1685095172939,360.0,410.0
2551,1685095172939,404.0,416.0
2552,1685095172984,368.0,442.0
2553,1685095172984,422.0,458.0
2554,1685095172984,329.0,455.0
2555,1685095173016,476.0,453.0
2556,1685095173016,383.0,483.0
2557,1685095173016,483.0,432.0
2558,1685095173016,427.0,476.0
2559,1685095173051,489.0,414.0
2560,1685095173051,480.0,456.0
2561,1685095173051,483.0,410.0
2562,1685095173082,438.0,385.0
2563,1685095173082,547.0,457.0
2564,1685095173082,381.0,384.0
2565,1685095173082,431.0,417.0
2566,1685095173118,494.0,451.0
2567,1685095173118,389.0,447.0
2568,1685095173118,390.0,418.0
2569,1685095173151,351.0,423.0
2570,1685095173151,447.0,460.0
2571,1685095173151,350.0,454.0
2572,1685095173151,479.0,455.0
2573,1685095173177,383.0,472.0
2574,1685095173177,487.0,428.0
2575,1685095173177,429.0,466.0
2576,1685095173218,470.0,403.0
2577,1685095173218,481.0,454.0
2578,1685095173218,494.0,428.0
2579,1685095173218,385.0,353.0
2580,1685095173240,557.0,464.0
2581,1685095173240,436.0,419.0
2582,1685095173240,377.0,400.0
2583,1685095173240,465.0,433.0
2584,1685095173286,394.0,445.0
2585,1685095173286,414.0,448.0
2586,1685095173286,334.0,427.0
2587,1685095173318,454.0,467.0
2588,1685095173318,358.0,462.0
2589,1685095173318,464.0,434.0
2590,1685095173318,391.0,468.0
2591,1685095173352,491.0,422.0
2592,1685095173352,453.0,454.0
2593,1685095173352,461.0,405.0
2594,1685095173384,464.0,410.0
2595,1685095173384,524.0,452.0
2596,1685095173384,383.0,367.0
2597,1685095173384,520.0,448.0
2598,1685095173418,506.0,447.0
2599,1685095173418,374.0,412.0
2600,1685095173418,418.0,420.0
2601,1685095173446,384.0,445.0
2602,1685095173446,418.0,457.0
2603,1685095173446,331.0,446.0
2604,1685095173446,465.0,465.0
2605,1685095173480,379.0,467.0
2606,1685095173480,478.0,429.0
2607,1685095173480,400.0,471.0
2608,1685095173518,490.0,418.0
2609,1685095173518,481.0,457.0
2610,1685095173518,470.0,410.0
2611,1685095173518,452.0,394.0
2612,1685095173543,551.0,475.0
2613,1685095173543,400.0,375.0
2614,1685095173543,461.0,435.0
2615,1685095173543,498.0,440.0
2616,1685095173588,385.0,442.0
2617,1685095173588,392.0,415.0
2618,1685095173588,348.0,425.0
2619,1685095173618,432.0,450.0
2620,1685095173618,325.0,449.0
2621,1685095173618,475.0,462.0
2622,1685095173618,392.0,477.0
2623,1685095173653,489.0,424.0
2624,1685095173653,442.0,483.0
2625,1685095173653,488.0,397.0
2626,1685095173684,483.0,436.0
2627,1685095173684,490.0,431.0
2628,1685095173684,398.0,351.0
2629,1685095173684,548.0,465.0
2630,1685095173718,434.0,401.0
2631,1685095173718,380.0,404.0
2632,1685095173718,463.0,431.0
2633,1685095173748,391.0,434.0
2634,1685095173748,389.0,423.0
2635,1685095173748,340.0,436.0
2636,1685095173748,454.0,456.0
2637,1685095173779,359.0,468.0
2638,1685095173779,471.0,438.0
2639,1685095173779,400.0,467.0
2640,1685095173818,495.0,420.0
2641,1685095173818,447.0,468.0
2642,1685095173818,456.0,397.0
2643,1685095173818,468.0,407.0
2644,1685095173843,507.0,441.0
2645,1685095173843,377.0,351.0
2646,1685095173843,523.0,455.0
2647,1685095173843,482.0,433.0
2648,1685095173886,378.0,412.0
2649,1685095173886,446.0,423.0
2650,1685095173886,394.0,441.0
2651,1685095173918,428.0,456.0
2652,1685095173918,346.0,438.0
2653,1685095173918,466.0,465.0
2654,1685095173918,375.0,486.0
2655,1685095173955,468.0,423.0
2656,1685095173955,396.0,478.0
2657,1685095173955,471.0,394.0
2658,1685095173986,466.0,470.0
2659,1685095173986,456.0,403.0
2660,1685095173986,453.0,393.0
2661,1685095173986,524.0,446.0
2662,1685095174018,400.0,383.0
2663,1685095174018,483.0,423.0
2664,1685095174018,518.0,464.0
2665,1685095174050,385.0,434.0
2666,1685095174050,407.0,430.0
2667,1685095174050,369.0,439.0
2668,1685095174050,430.0,458.0
2669,1685095174081,329.0,439.0
2670,1685095174081,464.0,453.0
2671,1685095174081,391.0,474.0
2672,1685095174118,478.0,423.0
2673,1685095174118,430.0,481.0
2674,1685095174118,486.0,411.0
2675,1685095174118,484.0,460.0
2676,1685095174144,490.0,433.0
2677,1685095174144,420.0,375.0
2678,1685095174144,559.0,472.0
2679,1685095174144,419.0,391.0
2680,1685095174187,401.0,409.0
2681,1685095174187,473.0,438.0
2682,1685095174187,388.0,440.0
2683,1685095174219,382.0,416.0
2684,1685095174219,337.0,432.0
2685,1685095174219,451.0,463.0
2686,1685095174219,350.0,453.0
2687,1685095174256,480.0,456.0
2688,1685095174256,393.0,477.0
2689,1685095174256,503.0,428.0
2690,1685095174272,455.0,483.0
2691,1685095174272,475.0,389.0
2692,1685095174272,478.0,434.0
2693,1685095174272,502.0,434.0
2694,1685095174319,379.0,360.0
2695,1685095174319,512.0,447.0
2696,1685095174319,450.0,422.0
2697,1685095174351,367.0,398.0
2698,1685095174351,440.0,432.0
2699,1685095174351,397.0,444.0
2700,1685095174351,411.0,434.0
2701,1685095174382,343.0,452.0
2702,1685095174382,475.0,464.0
2703,1685095174382,377.0,473.0
2704,1685095174418,476.0,440.0
2705,1685095174418,402.0,473.0
2706,1685095174418,477.0,413.0
2707,1685095174418,451.0,459.0
2708,1685095174445,456.0,405.0
2709,1685095174445,442.0,402.0
2710,1685095174445,524.0,451.0
2711,1685095174445,370.0,372.0
2712,1685095174488,493.0,452.0
2713,1685095174488,517.0,437.0
2714,1685095174488,386.0,436.0
2715,1685095174520,412.0,411.0
2716,1685095174520,387.0,448.0
2717,1685095174520,436.0,460.0
2718,1685095174520,339.0,446.0
2719,1685095174552,461.0,451.0
2720,1685095174552,382.0,468.0
2721,1685095174552,462.0,421.0
2722,1685095174584,407.0,481.0
2723,1685095174584,474.0,405.0
2724,1685095174584,481.0,461.0
2725,1685095174584,482.0,420.0
2726,1685095174619,423.0,384.0
2727,1685095174619,547.0,470.0
2728,1685095174619,407.0,389.0
2729,1685095174646,433.0,420.0
2730,1685095174646,493.0,422.0
2731,1685095174646,392.0,432.0
2732,1685095174646,377.0,412.0
2733,1685095174678,333.0,424.0
2734,1685095174678,438.0,462.0
2735,1685095174678,346.0,452.0
2736,1685095174719,471.0,447.0
2737,1685095174719,389.0,474.0
2738,1685095174719,499.0,440.0
2739,1685095174719,455.0,475.0
2740,1685095174741,483.0,414.0
2741,1685095174741,482.0,430.0
2742,1685095174741,507.0,439.0
2743,1685095174741,388.0,357.0
2744,1685095174790,532.0,465.0
2745,1685095174790,443.0,411.0
2746,1685095174790,358.0,392.0
2747,1685095174819,445.0,426.0
2748,1685095174819,386.0,440.0
2749,1685095174819,396.0,427.0
2750,1685095174819,334.0,433.0
2751,1685095174855,461.0,457.0
2752,1685095174855,373.0,469.0
2753,1685095174855,483.0,449.0
2754,1685095174887,406.0,473.0
2755,1685095174887,501.0,425.0
2756,1685095174887,458.0,464.0
2757,1685095174887,462.0,406.0
2758,1685095174919,456.0,408.0
2759,1685095174919,515.0,442.0
2760,1685095174919,370.0,365.0
2761,1685095174949,509.0,455.0
2762,1685095174949,498.0,436.0
2763,1685095174949,380.0,428.0
2764,1685095174949,416.0,418.0
2765,1685095174988,392.0,438.0
2766,1685095174988,436.0,462.0
2767,1685095174988,343.0,440.0
2768,1685095175019,466.0,458.0
2769,1685095175019,385.0,474.0
2770,1685095175019,479.0,428.0
2771,1685095175019,401.0,464.0
2772,1685095175044,474.0,410.0
2773,1685095175044,465.0,455.0
2774,1685095175044,478.0,426.0
2775,1685095175044,428.0,375.0
2776,1685095175089,547.0,476.0
2777,1685095175089,393.0,373.0
2778,1685095175089,449.0,428.0
2779,1685095175121,513.0,453.0
2780,1685095175121,396.0,436.0
2781,1685095175121,396.0,431.0
2782,1685095175121,358.0,434.0
2783,1685095175156,443.0,458.0
2784,1685095175156,343.0,451.0
2785,1685095175156,465.0,452.0
2786,1685095175187,384.0,465.0
2787,1685095175187,474.0,418.0
2788,1685095175187,423.0,466.0
2789,1685095175187,476.0,405.0
2790,1685095175220,473.0,440.0
2791,1685095175220,489.0,433.0
2792,1685095175220,407.0,349.0
2793,1685095175253,549.0,466.0
2794,1685095175253,440.0,408.0
2795,1685095175253,383.0,396.0
2796,1685095175253,461.0,435.0
2797,1685095175282,390.0,437.0
2798,1685095175282,385.0,425.0
2799,1685095175282,321.0,426.0
2800,1685095175320,451.0,454.0
2801,1685095175320,359.0,464.0
2802,1685095175320,471.0,446.0
2803,1685095175320,413.0,480.0
2804,1685095175345,502.0,424.0
2805,1685095175345,456.0,466.0
2806,1685095175345,467.0,395.0
2807,1685095175345,465.0,413.0
2808,1685095175390,515.0,452.0
2809,1685095175390,380.0,357.0
2810,1685095175390,514.0,460.0
2811,1685095175421,485.0,442.0
2812,1685095175421,360.0,410.0
2813,1685095175421,424.0,413.0
2814,1685095175421,375.0,438.0
2815,1685095175456,429.0,475.0
2816,1685095175456,332.0,435.0
2817,1685095175456,473.0,465.0
2818,1685095175487,390.0,470.0
2819,1685095175487,481.0,433.0
2820,1685095175487,412.0,472.0
2821,1685095175487,491.0,406.0
2822,1685095175521,467.0,463.0
2823,1685095175521,467.0,407.0
2824,1685095175521,445.0,394.0
2825,1685095175550,537.0,468.0
2826,1685095175550,379.0,368.0
2827,1685095175550,463.0,427.0
2828,1685095175550,512.0,463.0
2829,1685095175582,387.0,434.0
2830,1685095175582,394.0,416.0
2831,1685095175582,379.0,445.0
2832,1685095175620,449.0,462.0
2833,1685095175620,353.0,455.0
2834,1685095175620,478.0,457.0
2835,1685095175620,387.0,467.0
2836,1685095175644,482.0,426.0
2837,1685095175644,408.0,474.0
2838,1685095175644,465.0,403.0
2839,1685095175644,473.0,444.0
2840,1685095175690,475.0,426.0
2841,1685095175690,405.0,355.0
2842,1685095175690,557.0,475.0
2843,1685095175721,422.0,393.0
2844,1685095175721,401.0,406.0
2845,1685095175721,485.0,439.0
2846,1685095175721,395.0,445.0
2847,1685095175757,411.0,428.0
2848,1685095175757,341.0,424.0
2849,1685095175757,441.0,457.0
2850,1685095175789,352.0,466.0
2851,1685095175789,469.0,441.0
2852,1685095175789,387.0,464.0
2853,1685095175789,493.0,435.0
2854,1685095175821,446.0,455.0
2855,1685095175821,466.0,401.0
2856,1685095175821,467.0,412.0
2857,1685095175853,503.0,444.0
2858,1685095175853,389.0,363.0
2859,1685095175853,532.0,457.0
2860,1685095175853,474.0,435.0
2861,1685095175884,369.0,406.0
2862,1685095175884,435.0,417.0
2863,1685095175884,381.0,448.0
2864,1685095175921,404.0,436.0
2865,1685095175921,323.0,426.0
2866,1685095175921,454.0,459.0
2867,1685095175921,380.0,475.0
2868,1685095175947,475.0,432.0
2869,1685095175947,410.0,484.0
2870,1685095175947,497.0,408.0
2871,1685095175947,474.0,464.0
2872,1685095175991,465.0,411.0
2873,1685095175991,455.0,401.0
2874,1685095175991,534.0,455.0
2875,1685095176022,374.0,370.0
2876,1685095176022,479.0,433.0
2877,1685095176022,499.0,450.0
2878,1685095176022,380.0,427.0
2879,1685095176057,401.0,420.0
2880,1685095176057,367.0,441.0
2881,1685095176057,447.0,462.0
2882,1685095176089,351.0,453.0
2883,1685095176089,488.0,465.0
2884,1685095176089,400.0,476.0
2885,1685095176089,481.0,435.0
2886,1685095176121,419.0,467.0
2887,1685095176121,473.0,408.0
2888,1685095176121,478.0,454.0
2889,1685095176152,478.0,419.0
2890,1685095176152,411.0,373.0
2891,1685095176152,546.0,460.0
2892,1685095176152,399.0,385.0
2893,1685095176183,422.0,400.0
2894,1685095176183,488.0,436.0
2895,1685095176183,396.0,438.0
2896,1685095176221,407.0,424.0
2897,1685095176221,359.0,441.0
2898,1685095176221,457.0,459.0
2899,1685095176221,357.0,454.0
2900,1685095176246,465.0,450.0
2901,1685095176246,390.0,466.0
2902,1685095176246,483.0,421.0
2903,1685095176246,424.0,467.0
2904,1685095176292,469.0,407.0
2905,1685095176292,474.0,433.0
2906,1685095176292,504.0,441.0
2907,1685095176323,386.0,365.0
2908,1685095176323,547.0,457.0
2909,1685095176323,459.0,422.0
2910,1685095176323,375.0,405.0
2911,1685095176358,448.0,415.0
2912,1685095176358,393.0,448.0
2913,1685095176358,405.0,428.0
2914,1685095176389,321.0,424.0
2915,1685095176389,465.0,469.0
2916,1685095176389,363.0,455.0
2917,1685095176389,470.0,446.0
2918,1685095176421,400.0,462.0
2919,1685095176421,494.0,425.0
2920,1685095176421,469.0,459.0
2921,1685095176452,462.0,401.0
2922,1685095176452,462.0,407.0
2923,1685095176452,526.0,453.0
2924,1685095176452,382.0,370.0
2925,1685095176484,502.0,439.0
2926,1685095176484,494.0,442.0
2927,1685095176484,369.0,416.0
2928,1685095176521,405.0,410.0
2929,1685095176521,369.0,439.0
2930,1685095176521,432.0,452.0
2931,1685095176521,323.0,439.0
2932,1685095176547,464.0,457.0
2933,1685095176547,388.0,482.0
2934,1685095176547,486.0,434.0
2935,1685095176547,417.0,471.0
2936,1685095176593,492.0,410.0
2937,1685095176593,484.0,449.0
2938,1685095176593,479.0,420.0
2939,1685095176624,425.0,376.0
2940,1685095176624,544.0,466.0
2941,1685095176624,400.0,384.0
2942,1685095176624,437.0,417.0
2943,1685095176659,493.0,454.0
2944,1685095176659,386.0,429.0
2945,1685095176659,383.0,422.0
2946,1685095176692,353.0,447.0
2947,1685095176692,455.0,465.0
2948,1685095176692,347.0,454.0
2949,1685095176692,477.0,463.0
2950,1685095176724,393.0,471.0
2951,1685095176724,485.0,420.0
2952,1685095176724,440.0,474.0
2953,1685095176754,464.0,400.0
2954,1685095176754,481.0,439.0
2955,1685095176754,493.0,441.0
2956,1685095176754,390.0,350.0
2957,1685095176785,537.0,460.0
2958,1685095176785,430.0,418.0
2959,1685095176785,371.0,401.0
2960,1685095176822,476.0,436.0
2961,1685095176822,402.0,450.0
2962,1685095176822,412.0,439.0
2963,1685095176822,334.0,421.0
2964,1685095176848,457.0,474.0
2965,1685095176848,365.0,464.0
2966,1685095176848,458.0,437.0
2967,1685095176848,392.0,473.0
2968,1685095176895,482.0,419.0
2969,1685095176895,459.0,474.0
2970,1685095176895,458.0,400.0
2971,1685095176922,454.0,409.0
2972,1685095176922,516.0,444.0
2973,1685095176922,376.0,371.0
2974,1685095176922,524.0,449.0
2975,1685095176959,506.0,445.0
2976,1685095176959,370.0,405.0
2977,1685095176959,433.0,432.0
2978,1685095176991,375.0,436.0
2979,1685095176991,420.0,449.0
2980,1685095176991,321.0,436.0
2981,1685095176991,464.0,449.0
2982,1685095177025,374.0,479.0
2983,1685095177025,477.0,435.0
2984,1685095177025,409.0,463.0
2985,1685095177055,479.0,406.0
2986,1685095177055,481.0,459.0
2987,1685095177055,479.0,419.0
2988,1685095177055,451.0,390.0
2989,1685095177086,554.0,464.0
2990,1685095177086,388.0,372.0
2991,1685095177086,469.0,439.0
2992,1685095177123,508.0,449.0
2993,1685095177123,377.0,434.0
2994,1685095177123,376.0,393.0
2995,1685095177123,349.0,446.0
2996,1685095177149,435.0,459.0
2997,1685095177149,328.0,451.0
2998,1685095177149,473.0,464.0
2999,1685095177149,401.0,468.0
3000,1685095177193,494.0,430.0
3001,1685095177193,453.0,486.0
3002,1685095177193,486.0,400.0
3003,1685095177225,491.0,457.0
3004,1685095177225,494.0,435.0
3005,1685095177225,403.0,352.0
3006,1685095177225,538.0,469.0
3007,1685095177261,407.0,398.0
3008,1685095177261,383.0,404.0
3009,1685095177261,468.0,412.0
3010,1685095177292,393.0,455.0
3011,1685095177292,382.0,415.0
3012,1685095177292,344.0,442.0
3013,1685095177292,463.0,463.0
3014,1685095177323,361.0,466.0
3015,1685095177323,496.0,456.0
3016,1685095177323,399.0,470.0
3017,1685095177354,484.0,414.0
3018,1685095177354,443.0,464.0
3019,1685095177354,454.0,401.0
3020,1685095177354,467.0,411.0
3021,1685095177386,497.0,430.0
3022,1685095177386,376.0,353.0
3023,1685095177386,525.0,455.0
3024,1685095177423,483.0,419.0
3025,1685095177423,372.0,419.0
3026,1685095177423,449.0,424.0
3027,1685095177423,401.0,446.0
3028,1685095177449,421.0,454.0
3029,1685095177449,335.0,435.0
3030,1685095177449,463.0,452.0
3031,1685095177449,368.0,472.0
3032,1685095177494,458.0,421.0
3033,1685095177494,395.0,475.0
3034,1685095177494,476.0,406.0
3035,1685095177527,467.0,450.0
3036,1685095177527,461.0,412.0
3037,1685095177527,459.0,394.0
3038,1685095177527,546.0,468.0
3039,1685095177560,390.0,369.0
3040,1685095177560,492.0,452.0
3041,1685095177560,519.0,449.0
3042,1685095177593,378.0,423.0
3043,1685095177593,396.0,409.0
3044,1685095177593,366.0,442.0
3045,1685095177593,433.0,456.0
3046,1685095177625,319.0,439.0
3047,1685095177625,472.0,459.0
3048,1685095177625,378.0,477.0
3049,1685095177657,484.0,430.0
3050,1685095177657,427.0,468.0
3051,1685095177657,489.0,415.0
3052,1685095177657,494.0,447.0
3053,1685095177687,484.0,421.0
3054,1685095177687,429.0,378.0
3055,1685095177687,549.0,463.0
3056,1685095177724,406.0,388.0
3057,1685095177724,408.0,406.0
3058,1685095177724,480.0,439.0
3059,1685095177724,373.0,434.0
3060,1685095177750,371.0,413.0
3061,1685095177750,334.0,423.0
3062,1685095177750,451.0,464.0
3063,1685095177750,345.0,459.0
3064,1685095177795,494.0,461.0
3065,1685095177795,401.0,472.0
3066,1685095177795,495.0,425.0
3067,1685095177826,457.0,480.0
3068,1685095177826,464.0,399.0
3069,1685095177826,486.0,429.0
3070,1685095177826,497.0,437.0
3071,1685095177861,378.0,360.0
3072,1685095177861,531.0,459.0
3073,1685095177861,445.0,412.0
3074,1685095177892,358.0,406.0
3075,1685095177892,453.0,423.0
3076,1685095177892,397.0,441.0
3077,1685095177892,421.0,434.0
3078,1685095177925,330.0,431.0
3079,1685095177925,475.0,479.0
3080,1685095177925,370.0,454.0
3081,1685095177956,472.0,445.0
3082,1685095177956,401.0,476.0
3083,1685095177956,480.0,402.0
3084,1685095177956,454.0,467.0
3085,1685095177991,449.0,395.0
3086,1685095177991,452.0,403.0
3087,1685095177991,535.0,457.0
3088,1685095178025,375.0,362.0
3089,1685095178025,511.0,460.0
3090,1685095178025,508.0,453.0
3091,1685095178025,379.0,418.0
3092,1685095178050,426.0,422.0
3093,1685095178050,383.0,443.0
3094,1685095178050,437.0,470.0
3095,1685095178050,334.0,436.0
3096,1685095178095,474.0,469.0
3097,1685095178095,368.0,466.0
3098,1685095178095,467.0,431.0
3099,1685095178127,400.0,465.0
3100,1685095178127,474.0,398.0
3101,1685095178127,488.0,456.0
3102,1685095178127,479.0,429.0
3103,1685095178162,435.0,384.0
3104,1685095178162,562.0,474.0
3105,1685095178162,401.0,370.0
3106,1685095178193,448.0,432.0
3107,1685095178193,504.0,442.0
3108,1685095178193,387.0,435.0
3109,1685095178193,380.0,413.0
3110,1685095178226,335.0,417.0
3111,1685095178226,444.0,465.0
3112,1685095178226,332.0,445.0
3113,1685095178260,475.0,459.0
3114,1685095178260,398.0,472.0
3115,1685095178260,501.0,437.0
3116,1685095178260,456.0,474.0
3117,1685095178288,485.0,415.0
3118,1685095178288,494.0,442.0
3119,1685095178288,494.0,438.0
3120,1685095178325,394.0,356.0
3121,1685095178325,542.0,457.0
3122,1685095178325,427.0,415.0
3123,1685095178325,368.0,401.0
3124,1685095178351,448.0,419.0
3125,1685095178351,375.0,434.0
3126,1685095178351,399.0,444.0
3127,1685095178351,329.0,423.0
3128,1685095178396,476.0,470.0
3129,1685095178396,367.0,458.0
3130,1685095178396,486.0,447.0
3131,1685095178427,405.0,476.0
3132,1685095178427,495.0,420.0
3133,1685095178427,460.0,474.0
3134,1685095178427,450.0,387.0
3135,1685095178463,469.0,412.0
3136,1685095178463,509.0,452.0
3137,1685095178463,364.0,351.0
3138,1685095178495,511.0,437.0
3139,1685095178495,489.0,445.0
3140,1685095178495,367.0,411.0
3141,1685095178495,441.0,428.0
3142,1685095178526,393.0,448.0
3143,1685095178526,430.0,454.0
3144,1685095178526,326.0,432.0
3145,1685095178558,479.0,473.0
3146,1685095178558,375.0,467.0
3147,1685095178558,472.0,435.0
3148,1685095178558,402.0,469.0
3149,1685095178589,470.0,401.0
3150,1685095178589,478.0,470.0
3151,1685095178589,466.0,405.0
3152,1685095178625,442.0,389.0
3153,1685095178625,556.0,472.0
3154,1685095178625,389.0,370.0
3155,1685095178625,467.0,437.0
3156,1685095178652,514.0,442.0
3157,1685095178652,383.0,440.0
3158,1685095178652,403.0,423.0
3159,1685095178652,367.0,433.0
3160,1685095178696,446.0,468.0
3161,1685095178696,323.0,445.0
3162,1685095178696,469.0,451.0
3163,1685095178728,381.0,464.0
3164,1685095178728,479.0,425.0
3165,1685095178728,432.0,484.0
3166,1685095178728,477.0,399.0
3167,1685095178763,489.0,454.0
3168,1685095178763,488.0,424.0
3169,1685095178763,402.0,366.0
3170,1685095178795,557.0,475.0
3171,1685095178795,423.0,394.0
3172,1685095178795,402.0,406.0
3173,1685095178795,480.0,431.0
3174,1685095178828,384.0,446.0
3175,1685095178828,379.0,418.0
3176,1685095178828,323.0,423.0
3177,1685095178858,444.0,449.0
3178,1685095178858,343.0,459.0
3179,1685095178858,482.0,448.0
3180,1685095178858,400.0,479.0
3181,1685095178891,501.0,416.0
3182,1685095178891,461.0,482.0
3183,1685095178891,477.0,395.0
3184,1685095178926,479.0,435.0
3185,1685095178926,511.0,437.0
3186,1685095178926,374.0,360.0
3187,1685095178926,518.0,449.0
3188,1685095178953,450.0,422.0
3189,1685095178953,358.0,404.0
3190,1685095178953,444.0,426.0
3191,1685095178953,390.0,451.0
3192,1685095178997,406.0,437.0
3193,1685095178997,331.0,436.0
3194,1685095178997,473.0,458.0
3195,1685095179028,383.0,461.0
3196,1685095179028,489.0,444.0
3197,1685095179028,407.0,472.0
3198,1685095179028,483.0,418.0
3199,1685095179064,473.0,466.0
3200,1685095179064,456.0,407.0
3201,1685095179064,448.0,402.0
3202,1685095179095,522.0,471.0
3203,1685095179095,373.0,363.0
3204,1685095179095,483.0,430.0
3205,1685095179095,514.0,454.0
3206,1685095179127,379.0,427.0
3207,1685095179127,419.0,411.0
3208,1685095179127,373.0,436.0
3209,1685095179159,449.0,471.0
3210,1685095179159,347.0,439.0
3211,1685095179159,467.0,458.0
3212,1685095179159,384.0,460.0
3213,1685095179190,470.0,424.0
3214,1685095179190,414.0,475.0
3215,1685095179190,464.0,399.0
3216,1685095179226,479.0,456.0
3217,1685095179226,476.0,421.0
3218,1685095179226,421.0,378.0
3219,1685095179226,559.0,469.0
3220,1685095179256,408.0,385.0
3221,1685095179256,434.0,420.0
3222,1685095179256,504.0,445.0
3223,1685095179256,388.0,434.0
3224,1685095179298,395.0,421.0
3225,1685095179298,351.0,428.0
3226,1685095179298,444.0,459.0
3227,1685095179329,347.0,452.0
3228,1685095179329,473.0,444.0
3229,1685095179329,392.0,464.0
3230,1685095179329,486.0,422.0
3231,1685095179365,447.0,471.0
3232,1685095179365,479.0,411.0
3233,1685095179365,487.0,438.0
3234,1685095179396,492.0,442.0
3235,1685095179396,388.0,362.0
3236,1685095179396,546.0,455.0
3237,1685095179396,435.0,412.0
3238,1685095179428,361.0,404.0
3239,1685095179428,452.0,416.0
3240,1685095179428,390.0,435.0
3241,1685095179459,394.0,430.0
3242,1685095179459,328.0,427.0
3243,1685095179459,458.0,470.0
3244,1685095179459,376.0,461.0
3245,1685095179491,476.0,446.0
3246,1685095179491,406.0,467.0
3247,1685095179491,498.0,420.0
3248,1685095179527,464.0,474.0
3249,1685095179527,463.0,388.0
3250,1685095179527,451.0,410.0
3251,1685095179527,523.0,461.0
3252,1685095179553,365.0,355.0
3253,1685095179553,505.0,450.0
3254,1685095179553,499.0,438.0
3255,1685095179553,362.0,409.0
3256,1685095179599,426.0,422.0
3257,1685095179599,389.0,442.0
3258,1685095179599,441.0,466.0
3259,1685095179631,341.0,434.0
3260,1685095179631,462.0,460.0
3261,1685095179631,383.0,470.0
3262,1685095179631,477.0,434.0
3263,1685095179665,413.0,468.0
3264,1685095179665,473.0,410.0
3265,1685095179665,469.0,466.0
3266,1685095179696,469.0,420.0
3267,1685095179696,433.0,392.0
3268,1685095179696,552.0,471.0
3269,1685095179696,388.0,376.0
3270,1685095179728,452.0,433.0
3271,1685095179728,523.0,460.0
3272,1685095179728,396.0,438.0
3273,1685095179760,401.0,412.0
3274,1685095179760,361.0,433.0
3275,1685095179760,433.0,464.0
3276,1685095179760,352.0,447.0
3277,1685095179791,472.0,463.0
3278,1685095179791,384.0,474.0
3279,1685095179791,480.0,428.0
3280,1685095179827,424.0,477.0
3281,1685095179827,474.0,406.0
3282,1685095179827,490.0,444.0
3283,1685095179827,482.0,421.0
3284,1685095179854,399.0,367.0
3285,1685095179854,553.0,467.0
3286,1685095179854,432.0,393.0
3287,1685095179854,386.0,402.0
3288,1685095179899,476.0,440.0
3289,1685095179899,383.0,434.0
3290,1685095179899,399.0,425.0
3291,1685095179931,343.0,436.0
3292,1685095179931,459.0,456.0
3293,1685095179931,353.0,468.0
3294,1685095179931,474.0,455.0
3295,1685095179966,396.0,467.0
3296,1685095179966,485.0,419.0
3297,1685095179966,463.0,473.0
3298,1685095179997,465.0,395.0
3299,1685095179997,471.0,422.0
3300,1685095179997,518.0,438.0
3301,1685095179997,372.0,358.0
3302,1685095180031,528.0,466.0
3303,1685095180031,483.0,445.0
3304,1685095180031,359.0,396.0
3305,1685095180060,434.0,427.0
3306,1685095180060,381.0,428.0
3307,1685095180060,413.0,456.0
3308,1685095180060,329.0,431.0
3309,1685095180092,467.0,465.0
3310,1685095180092,376.0,476.0
3311,1685095180092,482.0,438.0
3312,1685095180127,407.0,466.0
3313,1685095180127,487.0,411.0
3314,1685095180127,480.0,473.0
3315,1685095180127,467.0,401.0
3316,1685095180154,460.0,405.0
3317,1685095180154,540.0,465.0
3318,1685095180154,379.0,366.0
3319,1685095180154,472.0,442.0
3320,1685095180200,509.0,441.0
3321,1685095180200,375.0,444.0
3322,1685095180200,401.0,409.0
3323,1685095180231,364.0,431.0
3324,1685095180231,443.0,461.0
3325,1685095180231,337.0,443.0
3326,1685095180231,485.0,466.0
3327,1685095180266,389.0,472.0
3328,1685095180266,482.0,440.0
3329,1685095180266,423.0,482.0
3330,1685095180298,470.0,400.0
3331,1685095180298,478.0,460.0
3332,1685095180298,481.0,421.0
3333,1685095180298,414.0,362.0
3334,1685095180329,543.0,461.0
3335,1685095180329,409.0,383.0
3336,1685095180329,418.0,407.0
3337,1685095180361,496.0,440.0
3338,1685095180361,401.0,443.0
3339,1685095180361,397.0,426.0
3340,1685095180361,350.0,442.0
3341,1685095180392,462.0,472.0
3342,1685095180392,356.0,452.0
3343,1685095180392,481.0,465.0
3344,1685095180428,396.0,466.0
3345,1685095180428,484.0,422.0
3346,1685095180428,433.0,466.0
3347,1685095180428,457.0,396.0
3348,1685095180456,473.0,432.0
3349,1685095180456,499.0,434.0
3350,1685095180456,381.0,368.0
3351,1685095180456,543.0,473.0
3352,1685095180500,466.0,426.0
3353,1685095180500,369.0,393.0
3354,1685095180500,454.0,430.0
3355,1685095180532,386.0,440.0
3356,1685095180532,412.0,437.0
3357,1685095180532,330.0,432.0
3358,1685095180532,462.0,467.0
3359,1685095180567,363.0,454.0
3360,1685095180567,466.0,447.0
3361,1685095180567,395.0,469.0
3362,1685095180599,485.0,414.0
3363,1685095180599,469.0,470.0
3364,1685095180599,470.0,395.0
3365,1685095180599,469.0,416.0
3366,1685095180630,551.0,459.0
3367,1685095180630,377.0,359.0
3368,1685095180630,507.0,449.0
3369,1685095180662,504.0,444.0
3370,1685095180662,369.0,424.0
3371,1685095180662,414.0,415.0
3372,1685095180662,375.0,441.0
3373,1685095180694,423.0,453.0
3374,1685095180694,326.0,436.0
3375,1685095180694,474.0,468.0
3376,1685095180728,387.0,467.0
3377,1685095180728,482.0,438.0
3378,1685095180728,429.0,490.0
3379,1685095180728,479.0,398.0
3380,1685095180759,487.0,472.0
3381,1685095180759,475.0,413.0
3382,1685095180759,433.0,378.0
3383,1685095180759,543.0,465.0
3384,1685095180800,379.0,370.0
3385,1685095180800,441.0,423.0
3386,1685095180800,497.0,436.0
3387,1685095180832,386.0,441.0
3388,1685095180832,396.0,415.0
3389,1685095180832,351.0,431.0
3390,1685095180832,469.0,466.0
3391,1685095180868,340.0,447.0
3392,1685095180868,489.0,457.0
3393,1685095180868,401.0,480.0
3394,1685095180899,486.0,420.0
3395,1685095180899,434.0,468.0
3396,1685095180899,463.0,393.0
3397,1685095180899,473.0,444.0
3398,1685095180931,477.0,420.0
3399,1685095180931,391.0,366.0
3400,1685095180931,543.0,467.0
3401,1685095180962,437.0,395.0
3402,1685095180962,383.0,397.0
3403,1685095180962,481.0,440.0
3404,1685095180962,393.0,441.0
3405,1685095181001,407.0,441.0
3406,1685095181001,334.0,427.0
3407,1685095181001,469.0,478.0
3408,1685095181029,363.0,457.0
3409,1685095181029,462.0,443.0
3410,1685095181029,392.0,470.0
3411,1685095181029,471.0,411.0
3412,1685095181057,454.0,471.0
3413,1685095181057,456.0,384.0
3414,1685095181057,466.0,423.0
3415,1685095181057,528.0,455.0
3416,1685095181102,375.0,358.0
3417,1685095181102,528.0,456.0
3418,1685095181102,491.0,431.0
3419,1685095181133,363.0,413.0
3420,1685095181133,437.0,420.0
3421,1685095181133,377.0,438.0
3422,1685095181133,416.0,442.0
3423,1685095181169,319.0,429.0
3424,1685095181169,461.0,463.0
3425,1685095181169,377.0,460.0
3426,1685095181200,478.0,433.0
3427,1685095181200,414.0,475.0
3428,1685095181200,483.0,400.0
3429,1685095181200,484.0,475.0
3430,1685095181232,477.0,399.0
3431,1685095181232,447.0,396.0
3432,1685095181232,550.0,475.0
3433,1685095181264,382.0,376.0
3434,1685095181264,465.0,436.0
3435,1685095181264,505.0,442.0
3436,1685095181264,369.0,429.0
3437,1685095181296,395.0,409.0
3438,1685095181296,362.0,437.0
3439,1685095181296,451.0,468.0
3440,1685095181329,340.0,440.0
3441,1685095181329,479.0,462.0
3442,1685095181329,395.0,476.0
3443,1685095181329,488.0,435.0
3444,1685095181359,435.0,468.0
3445,1685095181359,478.0,399.0
3446,1685095181359,480.0,456.0
3447,1685095181359,476.0,417.0
3448,1685095181402,399.0,363.0
3449,1685095181402,541.0,469.0
3450,1685095181402,403.0,388.0
3451,1685095181434,402.0,408.0
3452,1685095181434,486.0,433.0
3453,1685095181434,399.0,450.0
3454,1685095181434,397.0,428.0
3455,1685095181468,347.0,438.0
3456,1685095181468,472.0,471.0
3457,1685095181468,366.0,466.0
3458,1685095181500,473.0,452.0
3459,1685095181500,398.0,465.0
3460,1685095181500,479.0,422.0
3461,1685095181500,448.0,472.0
3462,1685095181532,466.0,411.0
3463,1685095181532,462.0,411.0
3464,1685095181532,498.0,443.0
3465,1685095181564,377.0,358.0
3466,1685095181564,535.0,459.0
3467,1685095181564,467.0,425.0
3468,1685095181564,361.0,398.0
3469,1685095181596,454.0,436.0
3470,1685095181596,398.0,441.0
3471,1685095181596,411.0,440.0
3472,1685095181630,338.0,438.0
3473,1685095181630,464.0,459.0
3474,1685095181630,368.0,476.0
3475,1685095181630,466.0,436.0
3476,1685095181658,397.0,470.0
3477,1685095181658,474.0,412.0
3478,1685095181658,460.0,455.0
3479,1685095181658,462.0,412.0
3480,1685095181702,457.0,398.0
3481,1685095181702,532.0,458.0
3482,1685095181702,386.0,365.0
3483,1685095181734,502.0,456.0
3484,1685095181734,516.0,455.0
3485,1685095181734,377.0,427.0
3486,1685095181734,407.0,413.0
3487,1685095181770,375.0,446.0
3488,1685095181770,430.0,459.0
3489,1685095181770,321.0,432.0
3490,1685095181802,458.0,452.0
3491,1685095181802,381.0,475.0
3492,1685095181802,481.0,423.0
3493,1685095181802,437.0,483.0
3494,1685095181833,493.0,403.0
3495,1685095181833,492.0,459.0
3496,1685095181833,483.0,425.0
3497,1685095181864,432.0,384.0
3498,1685095181864,545.0,466.0
3499,1685095181864,393.0,377.0
3500,1685095181864,420.0,417.0
3501,1685095181895,494.0,427.0
3502,1685095181895,382.0,435.0
3503,1685095181895,383.0,411.0
3504,1685095181930,340.0,428.0
3505,1685095181930,447.0,462.0
3506,1685095181930,359.0,461.0
3507,1685095181930,495.0,461.0
3508,1685095181959,400.0,471.0
3509,1685095181959,499.0,427.0
3510,1685095181959,444.0,464.0
3511,1685095181959,467.0,409.0
3512,1685095182003,480.0,437.0
3513,1685095182003,478.0,426.0
3514,1685095182003,387.0,359.0
3515,1685095182035,530.0,453.0
3516,1685095182035,427.0,408.0
3517,1685095182035,367.0,405.0
3518,1685095182035,469.0,425.0
3519,1685095182071,392.0,446.0
3520,1685095182071,421.0,433.0
3521,1685095182071,348.0,430.0
3522,1685095182103,475.0,460.0
3523,1685095182103,366.0,466.0
3524,1685095182103,470.0,438.0
3525,1685095182103,396.0,481.0
3526,1685095182135,468.0,404.0
3527,1685095182135,444.0,464.0
3528,1685095182135,451.0,401.0
3529,1685095182167,462.0,413.0
3530,1685095182167,527.0,453.0
3531,1685095182167,377.0,362.0
3532,1685095182167,528.0,459.0
3533,1685095182202,514.0,450.0
3534,1685095182202,372.0,416.0
3535,1685095182202,437.0,425.0
3536,1685095182230,384.0,438.0
3537,1685095182230,421.0,443.0
3538,1685095182230,322.0,433.0
3539,1685095182230,463.0,465.0
3540,1685095182264,366.0,470.0
3541,1685095182264,466.0,429.0
3542,1685095182264,404.0,466.0
3543,1685095182264,493.0,413.0
3544,1685095182306,485.0,458.0
3545,1685095182306,481.0,427.0
3546,1685095182306,465.0,401.0
3547,1685095182331,560.0,469.0
3548,1685095182331,380.0,367.0
3549,1685095182331,457.0,437.0
3550,1685095182331,503.0,449.0
3551,1685095182373,370.0,425.0
3552,1685095182373,383.0,410.0
3553,1685095182373,347.0,439.0
3554,1685095182389,435.0,455.0
3555,1685095182389,339.0,455.0
3556,1685095182389,494.0,457.0
3557,1685095182389,403.0,486.0
3558,1685095182437,504.0,431.0
3559,1685095182437,446.0,478.0
3560,1685095182437,478.0,401.0
3561,1685095182468,494.0,445.0
3562,1685095182468,470.0,432.0
3563,1685095182468,392.0,351.0
3564,1685095182468,543.0,470.0
3565,1685095182500,409.0,401.0
3566,1685095182500,383.0,402.0
3567,1685095182500,475.0,431.0
3568,1685095182531,397.0,446.0
3569,1685095182531,401.0,422.0
3570,1685095182531,346.0,437.0
3571,1685095182531,464.0,469.0
3572,1685095182562,367.0,450.0
3573,1685095182562,486.0,453.0
3574,1685095182562,400.0,474.0
3575,1685095182562,487.0,424.0
3576,1685095182605,444.0,467.0
3577,1685095182605,447.0,387.0
3578,1685095182605,465.0,432.0
3579,1685095182637,504.0,429.0
3580,1685095182637,373.0,364.0
3581,1685095182637,534.0,452.0
3582,1685095182637,472.0,431.0
3583,1685095182671,365.0,404.0
3584,1685095182671,450.0,422.0
3585,1685095182671,393.0,448.0
3586,1685095182703,413.0,435.0
3587,1685095182703,345.0,444.0
3588,1685095182703,472.0,469.0
3589,1685095182703,365.0,464.0
3590,1685095182734,467.0,438.0
3591,1685095182734,391.0,469.0
3592,1685095182734,479.0,406.0
3593,1685095182765,470.0,475.0
3594,1685095182765,464.0,400.0
3595,1685095182765,460.0,407.0
3596,1685095182765,545.0,463.0
3597,1685095182797,382.0,378.0
3598,1685095182797,488.0,435.0
3599,1685095182797,515.0,452.0
3600,1685095182831,365.0,426.0
3601,1685095182831,403.0,412.0
3602,1685095182831,367.0,445.0
3603,1685095182831,436.0,457.0
3604,1685095182860,320.0,431.0
3605,1685095182860,481.0,464.0
3606,1685095182860,391.0,481.0
3607,1685095182860,488.0,427.0
3608,1685095182905,432.0,473.0
3609,1685095182905,487.0,405.0
3610,1685095182905,490.0,455.0
3611,1685095182936,479.0,429.0
3612,1685095182936,422.0,376.0
3613,1685095182936,547.0,473.0
3614,1685095182936,398.0,382.0
3615,1685095182972,416.0,424.0
3616,1685095182972,489.0,434.0
3617,1685095182972,382.0,434.0
3618,1685095183003,382.0,420.0
3619,1685095183003,347.0,428.0
3620,1685095183003,450.0,470.0
3621,1685095183003,351.0,457.0
3622,1685095183038,484.0,453.0
3623,1685095183038,396.0,469.0
3624,1685095183038,501.0,430.0
3625,1685095183066,446.0,469.0
3626,1685095183066,463.0,400.0
3627,1685095183066,490.0,441.0
3628,1685095183066,486.0,434.0
3629,1685095183098,384.0,360.0
3630,1685095183098,533.0,464.0
3631,1685095183098,441.0,417.0
3632,1685095183132,366.0,399.0
3633,1685095183132,466.0,438.0
3634,1685095183132,392.0,442.0
3635,1685095183132,402.0,426.0
3636,1685095183172,327.0,428.0
3637,1685095183172,474.0,473.0
3638,1685095183172,369.0,466.0
3639,1685095183172,475.0,451.0
3640,1685095183207,399.0,468.0
3641,1685095183207,481.0,413.0
3642,1685095183207,458.0,460.0
3643,1685095183238,458.0,397.0
3644,1685095183238,456.0,406.0
3645,1685095183238,529.0,452.0
3646,1685095183238,371.0,367.0
3647,1685095183273,506.0,449.0
3648,1685095183273,505.0,447.0
3649,1685095183273,361.0,415.0
3650,1685095183305,438.0,419.0
3651,1685095183305,387.0,453.0
3652,1685095183305,434.0,455.0
3653,1685095183305,333.0,444.0
3654,1685095183336,463.0,450.0
3655,1685095183336,381.0,471.0
3656,1685095183336,472.0,429.0
3657,1685095183367,408.0,474.0
3658,1685095183367,475.0,407.0
3659,1685095183367,478.0,458.0
3660,1685095183367,477.0,416.0
3661,1685095183398,442.0,384.0
3662,1685095183398,544.0,470.0
3663,1685095183398,392.0,375.0
3664,1685095183432,456.0,429.0
3665,1685095183432,509.0,452.0
3666,1685095183432,375.0,432.0
3667,1685095183432,398.0,421.0
3668,1685095183463,348.0,438.0
3669,1685095183463,440.0,462.0
3670,1685095183463,332.0,445.0
3671,1685095183463,482.0,459.0
3672,1685095183507,386.0,477.0
3673,1685095183507,488.0,428.0
3674,1685095183507,443.0,480.0
3675,1685095183538,472.0,401.0
3676,1685095183538,496.0,438.0
3677,1685095183538,487.0,430.0
3678,1685095183538,402.0,369.0
3679,1685095183574,560.0,475.0
3680,1685095183574,421.0,397.0
3681,1685095183574,378.0,406.0
3682,1685095183606,489.0,439.0
3683,1685095183606,390.0,448.0
3684,1685095183606,388.0,426.0
3685,1685095183606,325.0,422.0
3686,1685095183637,459.0,468.0
3687,1685095183637,369.0,466.0
3688,1685095183637,486.0,447.0
3689,1685095183673,402.0,459.0
3690,1685095183673,495.0,424.0
3691,1685095183673,466.0,477.0
3692,1685095183673,466.0,398.0
3693,1685095183700,476.0,412.0
3694,1685095183700,507.0,443.0
3695,1685095183700,376.0,356.0
3696,1685095183734,519.0,455.0
3697,1685095183734,471.0,431.0
3698,1685095183734,348.0,404.0
3699,1685095183734,436.0,425.0
3700,1685095183763,391.0,446.0
3701,1685095183763,420.0,442.0
3702,1685095183763,332.0,445.0
3703,1685095183763,468.0,462.0
3704,1685095183807,378.0,468.0
3705,1685095183807,482.0,441.0
3706,1685095183807,409.0,465.0
3707,1685095183839,481.0,416.0
3708,1685095183839,463.0,455.0
3709,1685095183839,462.0,413.0
3710,1685095183839,453.0,400.0
3711,1685095183874,529.0,462.0
3712,1685095183874,375.0,362.0
3713,1685095183874,488.0,425.0
3714,1685095183906,516.0,456.0
3715,1685095183906,372.0,424.0
3716,1685095183906,410.0,419.0
3717,1685095183906,368.0,440.0
3718,1685095183939,440.0,462.0
3719,1685095183939,333.0,439.0
3720,1685095183939,461.0,455.0
3721,1685095183969,387.0,471.0
3722,1685095183969,467.0,425.0
3723,1685095183969,425.0,481.0
3724,1685095183969,474.0,404.0
3725,1685095184000,491.0,455.0
3726,1685095184000,485.0,424.0
3727,1685095184000,431.0,381.0
3728,1685095184034,554.0,467.0
3729,1685095184034,404.0,383.0
3730,1685095184034,421.0,420.0
3731,1685095184034,501.0,444.0
3732,1685095184064,399.0,444.0
3733,1685095184064,384.0,418.0
3734,1685095184064,335.0,425.0
3735,1685095184064,438.0,456.0
3736,1685095184108,344.0,458.0
3737,1685095184108,476.0,455.0
3738,1685095184108,393.0,484.0
3739,1685095184140,493.0,428.0
3740,1685095184140,448.0,465.0
3741,1685095184140,481.0,408.0
3742,1685095184140,491.0,439.0
3743,1685095184174,493.0,432.0
3744,1685095184174,397.0,361.0
3745,1685095184174,543.0,463.0
3746,1685095184207,438.0,421.0
3747,1685095184207,372.0,397.0
3748,1685095184207,444.0,415.0
3749,1685095184207,382.0,435.0
3750,1685095184237,398.0,439.0
3751,1685095184237,323.0,427.0
3752,1685095184237,463.0,470.0
3753,1685095184269,357.0,449.0
3754,1685095184269,479.0,454.0
3755,1685095184269,415.0,471.0
3756,1685095184269,483.0,415.0
3757,1685095184300,475.0,471.0
3758,1685095184300,464.0,398.0
3759,1685095184300,476.0,408.0
3760,1685095184335,524.0,453.0
3761,1685095184335,373.0,358.0
3762,1685095184335,518.0,451.0
3763,1685095184335,485.0,436.0
3764,1685095184363,379.0,415.0
3765,1685095184363,412.0,412.0
3766,1685095184363,387.0,436.0
3767,1685095184363,417.0,460.0
3768,1685095184408,332.0,431.0
3769,1685095184408,468.0,463.0
3770,1685095184408,375.0,468.0
3771,1685095184439,468.0,436.0
3772,1685095184439,408.0,471.0
3773,1685095184439,484.0,408.0
3774,1685095184439,484.0,459.0
3775,1685095184475,471.0,410.0
3776,1685095184475,450.0,392.0
3777,1685095184475,564.0,472.0
3778,1685095184507,382.0,375.0
3779,1685095184507,473.0,414.0
3780,1685095184507,489.0,448.0
