Sample Number (10000 samples per second),UNIX Timestamp (Milliseconds since 1970-01-01),C1 (),C2 ()
0,1685096930061,460.0,464.0
1,1685096930071,451.0,465.0
2,1685096930071,443.0,462.0
3,1685096930071,417.0,455.0
4,1685096930072,399.0,445.0
5,1685096930072,371.0,436.0
6,1685096930072,362.0,432.0
7,1685096930072,487.0,445.0
8,1685096930072,360.0,383.0
9,1685096930072,456.0,440.0
10,1685096930072,448.0,445.0
11,1685096930072,350.0,414.0
12,1685096930072,409.0,417.0
13,1685096930072,392.0,448.0
14,1685096930072,438.0,438.0
15,1685096930072,375.0,438.0
16,1685096930072,500.0,456.0
17,1685096930072,425.0,459.0
18,1685096930074,477.0,425.0
19,1685096930074,442.0,459.0
20,1685096930074,482.0,414.0
21,1685096930074,461.0,448.0
22,1685096930074,456.0,423.0
23,1685096930074,421.0,398.0
24,1685096930074,500.0,467.0
25,1685096930074,384.0,407.0
26,1685096930074,415.0,418.0
27,1685096930074,469.0,451.0
28,1685096930074,373.0,438.0
29,1685096930074,399.0,415.0
30,1685096930074,385.0,437.0
31,1685096930074,474.0,461.0
32,1685096930074,380.0,444.0
33,1685096930074,506.0,450.0
34,1685096930074,444.0,468.0
35,1685096930074,479.0,420.0
36,1685096930074,460.0,459.0
37,1685096930074,477.0,416.0
38,1685096930074,466.0,437.0
39,1685096930075,475.0,437.0
40,1685096930075,382.0,381.0
41,1685096930075,490.0,458.0
42,1685096930075,409.0,430.0
43,1685096930075,361.0,409.0
44,1685096930075,432.0,425.0
45,1685096930075,388.0,444.0
46,1685096930075,404.0,419.0
47,1685096930075,361.0,431.0
48,1685096930075,476.0,450.0
49,1685096930075,407.0,459.0
50,1685096930075,490.0,436.0
51,1685096930075,453.0,459.0
52,1685096930075,498.0,423.0
53,1685096930077,469.0,455.0
54,1685096930077,463.0,414.0
55,1685096930077,445.0,420.0
56,1685096930077,491.0,457.0
57,1685096930077,364.0,381.0
58,1685096930077,452.0,444.0
59,1685096930077,441.0,448.0
60,1685096930077,348.0,416.0
61,1685096930077,404.0,408.0
62,1685096930077,384.0,435.0
63,1685096930077,437.0,447.0
64,1685096930077,370.0,436.0
65,1685096930077,494.0,462.0
66,1685096930077,430.0,459.0
67,1685096930077,495.0,434.0
68,1685096930077,455.0,453.0
69,1685096930077,488.0,417.0
70,1685096930077,470.0,444.0
71,1685096930077,462.0,424.0
72,1685096930077,409.0,400.0
73,1685096930079,499.0,462.0
74,1685096930079,374.0,404.0
75,1685096930079,407.0,421.0
76,1685096930079,467.0,439.0
77,1685096930079,384.0,437.0
78,1685096930079,397.0,416.0
79,1685096930079,377.0,439.0
80,1685096930079,477.0,461.0
81,1685096930081,396.0,446.0
82,1685096930081,501.0,454.0
83,1685096930081,440.0,467.0
84,1685096930081,481.0,421.0
85,1685096930081,450.0,450.0
86,1685096930081,471.0,414.0
87,1685096930081,461.0,441.0
88,1685096930081,472.0,442.0
89,1685096930082,370.0,379.0
90,1685096930082,481.0,445.0
91,1685096930082,414.0,432.0
92,1685096930082,350.0,404.0
93,1685096930082,430.0,425.0
94,1685096930082,392.0,444.0
95,1685096930082,412.0,430.0
96,1685096930082,371.0,436.0
97,1685096930082,491.0,460.0
98,1685096930082,408.0,448.0
99,1685096930082,482.0,431.0
100,1685096930082,449.0,466.0
101,1685096930082,493.0,419.0
102,1685096930082,466.0,449.0
103,1685096930082,460.0,416.0
104,1685096930082,437.0,409.0
105,1685096930084,498.0,457.0
106,1685096930084,371.0,391.0
107,1685096930084,457.0,433.0
108,1685096930084,465.0,453.0
109,1685096930084,359.0,421.0
110,1685096930084,401.0,409.0
111,1685096930084,382.0,440.0
112,1685096930086,442.0,451.0
113,1685096930087,372.0,432.0
114,1685096930087,487.0,459.0
115,1685096930087,434.0,463.0
116,1685096930087,486.0,427.0
117,1685096930087,456.0,460.0
118,1685096930087,495.0,421.0
119,1685096930087,473.0,437.0
120,1685096930087,476.0,434.0
121,1685096930087,398.0,390.0
122,1685096930087,506.0,463.0
123,1685096930087,382.0,413.0
124,1685096930087,394.0,412.0
125,1685096930087,456.0,447.0
126,1685096930087,378.0,435.0
127,1685096930089,392.0,417.0
128,1685096930089,366.0,430.0
129,1685096930089,467.0,453.0
130,1685096930089,393.0,443.0
131,1685096930089,506.0,455.0
132,1685096930089,447.0,465.0
133,1685096930089,491.0,421.0
134,1685096930089,460.0,453.0
135,1685096930089,482.0,417.0
136,1685096930089,463.0,426.0
137,1685096930089,477.0,445.0
138,1685096930089,367.0,379.0
139,1685096930089,472.0,444.0
140,1685096930089,414.0,431.0
141,1685096930089,344.0,406.0
142,1685096930089,418.0,418.0
143,1685096930090,381.0,444.0
144,1685096930090,424.0,439.0
145,1685096930090,367.0,426.0
146,1685096930090,499.0,472.0
147,1685096930090,413.0,457.0
148,1685096930090,489.0,433.0
149,1685096930090,454.0,463.0
150,1685096930090,487.0,417.0
151,1685096930090,466.0,447.0
152,1685096930090,458.0,415.0
153,1685096930090,425.0,402.0
154,1685096930090,496.0,465.0
155,1685096930090,364.0,395.0
156,1685096930090,445.0,435.0
157,1685096930090,467.0,455.0
158,1685096930090,366.0,426.0
159,1685096930090,407.0,414.0
160,1685096930092,392.0,441.0
161,1685096930092,463.0,462.0
162,1685096930092,372.0,433.0
163,1685096930092,492.0,451.0
164,1685096930092,440.0,464.0
165,1685096930092,477.0,416.0
166,1685096930092,452.0,457.0
167,1685096930092,484.0,415.0
168,1685096930092,468.0,438.0
169,1685096930092,465.0,429.0
170,1685096930093,400.0,391.0
171,1685096930093,512.0,462.0
172,1685096930093,393.0,421.0
173,1685096930093,390.0,416.0
174,1685096930093,452.0,440.0
175,1685096930093,392.0,446.0
176,1685096930093,394.0,411.0
177,1685096930093,359.0,435.0
178,1685096930093,471.0,460.0
179,1685096930093,390.0,457.0
180,1685096930093,480.0,446.0
181,1685096930093,441.0,466.0
182,1685096930093,485.0,419.0
183,1685096930093,463.0,456.0
184,1685096930093,474.0,413.0
185,1685096930093,462.0,430.0
186,1685096930093,484.0,452.0
187,1685096930093,378.0,386.0
188,1685096930093,486.0,450.0
189,1685096930093,426.0,429.0
190,1685096930093,355.0,413.0
191,1685096930093,411.0,410.0
192,1685096930095,390.0,439.0
193,1685096930095,418.0,439.0
194,1685096930095,363.0,429.0
195,1685096930095,488.0,458.0
196,1685096930095,416.0,460.0
197,1685096930095,484.0,428.0
198,1685096930095,453.0,471.0
199,1685096930095,490.0,421.0
200,1685096930095,465.0,450.0
201,1685096930095,463.0,413.0
202,1685096930095,431.0,405.0
203,1685096930095,495.0,459.0
204,1685096930095,369.0,394.0
205,1685096930095,441.0,432.0
206,1685096930095,466.0,449.0
207,1685096930095,378.0,431.0
208,1685096930095,402.0,410.0
209,1685096930095,398.0,437.0
210,1685096930095,467.0,462.0
211,1685096930096,385.0,441.0
212,1685096930096,492.0,457.0
213,1685096930096,437.0,466.0
214,1685096930096,474.0,416.0
215,1685096930096,441.0,460.0
216,1685096930096,470.0,412.0
217,1685096930096,458.0,436.0
218,1685096930096,469.0,438.0
219,1685096930096,387.0,385.0
220,1685096930096,508.0,471.0
221,1685096930096,401.0,418.0
222,1685096930096,394.0,412.0
223,1685096930096,465.0,432.0
224,1685096930096,409.0,430.0
225,1685096930096,415.0,426.0
226,1685096930096,380.0,423.0
227,1685096930096,486.0,463.0
228,1685096930098,396.0,451.0
229,1685096930098,479.0,436.0
230,1685096930098,432.0,463.0
231,1685096930098,476.0,421.0
232,1685096930098,449.0,459.0
233,1685096930098,457.0,421.0
234,1685096930098,450.0,423.0
235,1685096930098,492.0,458.0
236,1685096930098,371.0,387.0
237,1685096930098,489.0,450.0
238,1685096930098,447.0,440.0
239,1685096930098,365.0,408.0
240,1685096930098,419.0,410.0
241,1685096930098,407.0,437.0
242,1685096930098,426.0,445.0
243,1685096930098,366.0,418.0
244,1685096930098,482.0,460.0
245,1685096930100,415.0,462.0
246,1685096930100,482.0,430.0
247,1685096930100,441.0,468.0
248,1685096930100,481.0,427.0
249,1685096930100,461.0,455.0
250,1685096930100,456.0,431.0
251,1685096930100,425.0,398.0
252,1685096930100,500.0,477.0
253,1685096930100,375.0,387.0
254,1685096930100,421.0,429.0
255,1685096930100,479.0,443.0
256,1685096930100,385.0,432.0
257,1685096930101,399.0,402.0
258,1685096930101,376.0,408.0
259,1685096930101,466.0,474.0
260,1685096930101,385.0,442.0
261,1685096930101,507.0,456.0
262,1685096930101,439.0,468.0
263,1685096930101,474.0,425.0
264,1685096930101,446.0,462.0
265,1685096930101,453.0,409.0
266,1685096930101,451.0,438.0
267,1685096930101,443.0,444.0
268,1685096930101,377.0,384.0
269,1685096930101,480.0,463.0
270,1685096930101,409.0,418.0
271,1685096930101,371.0,413.0
272,1685096930103,462.0,423.0
273,1685096930103,419.0,444.0
274,1685096930103,421.0,423.0
275,1685096930103,397.0,425.0
276,1685096930103,496.0,470.0
277,1685096930103,424.0,466.0
278,1685096930103,470.0,435.0
279,1685096930103,435.0,473.0
280,1685096930103,457.0,411.0
281,1685096930103,434.0,456.0
282,1685096930103,431.0,417.0
283,1685096930103,435.0,408.0
284,1685096930104,463.0,460.0
285,1685096930106,365.0,377.0
286,1685096930106,473.0,446.0
287,1685096930106,459.0,446.0
288,1685096930106,376.0,405.0
289,1685096930106,431.0,408.0
290,1685096930106,426.0,434.0
291,1685096930106,457.0,458.0
292,1685096930106,398.0,429.0
293,1685096930106,487.0,459.0
294,1685096930106,422.0,461.0
295,1685096930107,469.0,421.0
296,1685096930107,430.0,465.0
297,1685096930107,463.0,414.0
298,1685096930108,448.0,454.0
299,1685096930108,443.0,432.0
300,1685096930108,417.0,393.0
301,1685096930108,491.0,465.0
302,1685096930108,378.0,398.0
303,1685096930108,427.0,417.0
304,1685096930108,479.0,447.0
305,1685096930108,403.0,431.0
306,1685096930108,412.0,404.0
307,1685096930108,409.0,421.0
308,1685096930108,470.0,473.0
309,1685096930109,396.0,442.0
310,1685096930109,496.0,458.0
311,1685096930109,436.0,477.0
312,1685096930109,466.0,421.0
313,1685096930109,445.0,477.0
314,1685096930109,461.0,412.0
315,1685096930109,457.0,433.0
316,1685096930109,445.0,448.0
317,1685096930109,387.0,375.0
318,1685096930110,484.0,462.0
319,1685096930110,406.0,422.0
320,1685096930110,381.0,400.0
321,1685096930110,449.0,417.0
322,1685096930110,422.0,442.0
323,1685096930110,417.0,427.0
324,1685096930110,389.0,420.0
325,1685096930110,490.0,466.0
326,1685096930110,422.0,464.0
327,1685096930110,491.0,440.0
328,1685096930110,441.0,478.0
329,1685096930110,474.0,419.0
330,1685096930110,444.0,462.0
331,1685096930110,437.0,422.0
332,1685096930110,429.0,399.0
333,1685096930110,463.0,466.0
334,1685096930110,363.0,365.0
335,1685096930110,447.0,437.0
336,1685096930110,462.0,447.0
337,1685096930110,373.0,418.0
338,1685096930110,416.0,401.0
339,1685096930110,419.0,441.0
340,1685096930110,462.0,461.0
341,1685096930112,391.0,437.0
342,1685096930112,490.0,463.0
343,1685096930112,424.0,471.0
344,1685096930112,469.0,423.0
345,1685096930112,430.0,472.0
346,1685096930112,445.0,408.0
347,1685096930112,448.0,444.0
348,1685096930112,434.0,433.0
349,1685096930112,408.0,386.0
350,1685096930112,484.0,476.0
351,1685096930112,397.0,405.0
352,1685096930112,405.0,409.0
353,1685096930112,483.0,445.0
354,1685096930112,407.0,433.0
355,1685096930112,419.0,414.0
356,1685096930112,399.0,427.0
357,1685096930112,480.0,466.0
358,1685096930112,410.0,458.0
359,1685096930112,488.0,451.0
360,1685096930112,432.0,481.0
361,1685096930112,463.0,415.0
362,1685096930112,440.0,468.0
363,1685096930112,446.0,414.0
364,1685096930112,457.0,428.0
365,1685096930112,441.0,452.0
366,1685096930112,388.0,369.0
367,1685096930112,471.0,461.0
368,1685096930112,434.0,430.0
369,1685096930112,356.0,388.0
370,1685096930112,448.0,411.0
371,1685096930112,419.0,435.0
372,1685096930112,431.0,428.0
373,1685096930112,389.0,428.0
374,1685096930112,481.0,462.0
375,1685096930112,420.0,464.0
376,1685096930112,477.0,436.0
377,1685096930112,447.0,482.0
378,1685096930112,473.0,425.0
379,1685096930112,452.0,459.0
380,1685096930112,429.0,421.0
381,1685096930112,434.0,400.0
382,1685096930112,463.0,468.0
383,1685096930112,368.0,368.0
384,1685096930112,445.0,434.0
385,1685096930112,473.0,445.0
386,1685096930112,389.0,413.0
387,1685096930112,417.0,398.0
388,1685096930112,420.0,438.0
389,1685096930112,458.0,453.0
390,1685096930112,404.0,450.0
391,1685096930112,480.0,464.0
392,1685096930112,431.0,472.0
393,1685096930112,465.0,436.0
394,1685096930112,436.0,460.0
395,1685096930112,455.0,412.0
396,1685096930112,457.0,447.0
397,1685096930112,431.0,431.0
398,1685096930112,413.0,373.0
399,1685096930112,485.0,469.0
400,1685096930112,390.0,398.0
401,1685096930112,416.0,404.0
402,1685096930112,464.0,436.0
403,1685096930112,422.0,438.0
404,1685096930112,407.0,411.0
405,1685096930112,406.0,433.0
406,1685096930112,467.0,467.0
407,1685096930112,415.0,456.0
408,1685096930112,479.0,449.0
409,1685096930112,429.0,476.0
410,1685096930112,461.0,425.0
411,1685096930112,439.0,470.0
412,1685096930112,447.0,414.0
413,1685096930112,452.0,426.0
414,1685096930112,447.0,455.0
415,1685096930112,388.0,365.0
416,1685096930112,478.0,452.0
417,1685096930112,429.0,438.0
418,1685096930112,393.0,395.0
419,1685096930112,433.0,408.0
420,1685096930112,437.0,446.0
421,1685096930112,412.0,433.0
422,1685096930112,405.0,428.0
423,1685096930112,465.0,465.0
424,1685096930112,410.0,461.0
425,1685096930112,466.0,436.0
426,1685096930112,434.0,475.0
427,1685096930112,458.0,410.0
428,1685096930112,448.0,460.0
429,1685096930112,436.0,418.0
430,1685096930112,434.0,393.0
431,1685096930112,478.0,469.0
432,1685096930112,378.0,383.0
433,1685096930112,477.0,432.0
434,1685096930112,455.0,448.0
435,1685096930112,417.0,421.0
436,1685096930112,405.0,394.0
437,1685096930112,431.0,432.0
438,1685096930112,434.0,455.0
439,1685096930112,400.0,443.0
440,1685096930112,463.0,458.0
441,1685096930112,425.0,475.0
442,1685096930112,455.0,419.0
443,1685096930112,432.0,475.0
444,1685096930112,463.0,412.0
445,1685096930112,458.0,451.0
446,1685096930112,449.0,442.0
447,1685096930112,420.0,382.0
448,1685096930112,502.0,471.0
449,1685096930112,393.0,409.0
450,1685096930112,428.0,399.0
451,1685096930112,446.0,420.0
452,1685096930112,434.0,443.0
453,1685096930112,387.0,404.0
454,1685096930112,403.0,424.0
455,1685096930112,445.0,467.0
456,1685096930112,403.0,457.0
457,1685096930112,465.0,442.0
458,1685096930112,426.0,485.0
459,1685096930112,468.0,420.0
460,1685096930112,444.0,470.0
461,1685096930112,457.0,419.0
462,1685096930112,457.0,420.0
463,1685096930112,465.0,456.0
464,1685096930112,383.0,367.0
465,1685096930112,490.0,437.0
466,1685096930112,421.0,434.0
467,1685096930112,400.0,403.0
468,1685096930112,411.0,403.0
469,1685096930112,432.0,441.0
470,1685096930112,406.0,448.0
471,1685096930112,402.0,437.0
472,1685096930112,463.0,469.0
473,1685096930112,415.0,467.0
474,1685096930112,465.0,431.0
475,1685096930112,430.0,468.0
476,1685096930112,465.0,411.0
477,1685096930112,449.0,453.0
478,1685096930112,444.0,411.0
479,1685096930112,438.0,396.0
480,1685096930112,487.0,471.0
481,1685096930112,375.0,386.0
482,1685096930112,473.0,428.0
483,1685096930112,460.0,450.0
484,1685096930112,422.0,429.0
485,1685096930112,401.0,403.0
486,1685096930112,425.0,435.0
487,1685096930112,440.0,467.0
488,1685096930112,394.0,447.0
489,1685096930112,472.0,456.0
490,1685096930112,423.0,475.0
491,1685096930112,458.0,421.0
492,1685096930112,430.0,474.0
493,1685096930112,456.0,414.0
494,1685096930112,459.0,443.0
495,1685096930112,456.0,444.0
496,1685096930112,408.0,374.0
497,1685096930112,507.0,472.0
498,1685096930112,404.0,419.0
499,1685096930112,421.0,399.0
500,1685096930112,440.0,424.0
501,1685096930112,434.0,441.0
502,1685096930112,391.0,417.0
503,1685096930112,397.0,429.0
504,1685096930112,443.0,464.0
505,1685096930112,398.0,454.0
506,1685096930112,462.0,444.0
507,1685096930112,426.0,469.0
508,1685096930112,473.0,427.0
509,1685096930112,451.0,471.0
510,1685096930112,459.0,411.0
511,1685096930112,460.0,419.0
512,1685096930112,473.0,457.0
513,1685096930112,387.0,369.0
514,1685096930112,490.0,443.0
515,1685096930112,428.0,435.0
516,1685096930112,397.0,403.0
517,1685096930112,407.0,398.0
518,1685096930112,423.0,438.0
519,1685096930112,406.0,441.0
520,1685096930112,388.0,432.0
521,1685096930112,462.0,466.0
522,1685096930112,408.0,469.0
523,1685096930112,461.0,433.0
524,1685096930112,431.0,470.0
525,1685096930112,470.0,410.0
526,1685096930112,460.0,460.0
527,1685096930112,450.0,422.0
528,1685096930112,442.0,398.0
529,1685096930112,491.0,469.0
530,1685096930112,378.0,382.0
531,1685096930112,453.0,426.0
532,1685096930112,452.0,439.0
533,1685096930112,414.0,434.0
534,1685096930112,390.0,406.0
535,1685096930112,419.0,432.0
536,1685096930112,441.0,470.0
537,1685096930112,392.0,443.0
538,1685096930112,480.0,459.0
539,1685096930112,432.0,480.0
540,1685096930112,463.0,421.0
541,1685096930112,436.0,471.0
542,1685096930112,459.0,406.0
543,1685096930112,465.0,440.0
544,1685096930112,456.0,443.0
545,1685096930112,397.0,366.0
546,1685096930112,503.0,471.0
547,1685096930112,394.0,418.0
548,1685096930112,412.0,409.0
549,1685096930112,435.0,421.0
550,1685096930112,432.0,442.0
551,1685096930112,400.0,428.0
552,1685096930112,396.0,427.0
553,1685096930112,456.0,472.0
554,1685096930112,403.0,460.0
555,1685096930112,463.0,433.0
556,1685096930112,424.0,468.0
557,1685096930112,465.0,418.0
558,1685096930112,444.0,457.0
559,1685096930112,452.0,416.0
560,1685096930112,457.0,414.0
561,1685096930112,484.0,463.0
562,1685096930112,381.0,381.0
563,1685096930112,502.0,452.0
564,1685096930112,441.0,436.0
565,1685096930112,399.0,414.0
566,1685096930112,408.0,401.0
567,1685096930112,426.0,436.0
568,1685096930112,419.0,439.0
569,1685096930112,375.0,426.0
570,1685096930112,454.0,459.0
571,1685096930112,414.0,465.0
572,1685096930112,463.0,429.0
573,1685096930125,428.0,475.0
574,1685096930125,474.0,422.0
575,1685096930125,466.0,454.0
576,1685096930125,457.0,427.0
577,1685096930125,436.0,394.0
578,1685096930125,507.0,472.0
579,1685096930125,387.0,400.0
580,1685096930125,450.0,416.0
581,1685096930125,457.0,441.0
582,1685096930125,411.0,436.0
583,1685096930125,384.0,399.0
584,1685096930125,406.0,437.0
585,1685096930125,443.0,463.0
586,1685096930125,386.0,441.0
587,1685096930125,478.0,462.0
588,1685096930125,427.0,482.0
589,1685096930125,471.0,420.0
590,1685096930125,445.0,477.0
591,1685096930125,469.0,405.0
592,1685096930125,472.0,443.0
593,1685096930125,461.0,438.0
594,1685096930125,394.0,369.0
595,1685096930125,498.0,463.0
596,1685096930125,396.0,418.0
597,1685096930125,403.0,398.0
598,1685096930125,433.0,420.0
599,1685096930125,427.0,438.0
600,1685096930125,404.0,428.0
601,1685096930125,390.0,432.0
602,1685096930125,461.0,462.0
603,1685096930125,411.0,463.0
604,1685096930125,466.0,432.0
605,1685096930125,433.0,471.0
606,1685096930125,468.0,412.0
607,1685096930125,444.0,453.0
608,1685096930125,447.0,412.0
609,1685096930125,440.0,410.0
610,1685096930125,485.0,467.0
611,1685096930125,375.0,379.0
612,1685096930125,491.0,446.0
613,1685096930125,442.0,445.0
614,1685096930125,406.0,419.0
615,1685096930125,408.0,407.0
616,1685096930125,424.0,435.0
617,1685096930125,430.0,454.0
618,1685096930125,378.0,434.0
619,1685096930125,459.0,453.0
620,1685096930125,415.0,464.0
621,1685096930125,461.0,428.0
622,1685096930125,428.0,467.0
623,1685096930125,467.0,408.0
624,1685096930125,459.0,455.0
625,1685096930125,461.0,432.0
626,1685096930125,429.0,393.0
627,1685096930125,510.0,477.0
628,1685096930125,396.0,404.0
629,1685096930125,452.0,412.0
630,1685096930125,458.0,437.0
631,1685096930125,417.0,430.0
632,1685096930125,385.0,407.0
633,1685096930125,396.0,416.0
634,1685096930125,443.0,464.0
635,1685096930125,389.0,448.0
636,1685096930125,468.0,446.0
637,1685096930125,428.0,481.0
638,1685096930125,464.0,420.0
639,1685096930125,451.0,477.0
640,1685096930125,472.0,418.0
641,1685096930125,471.0,435.0
642,1685096930125,470.0,453.0
643,1685096930125,395.0,372.0
644,1685096930125,513.0,471.0
645,1685096930125,405.0,414.0
646,1685096930125,399.0,401.0
647,1685096930125,422.0,410.0
648,1685096930125,413.0,438.0
649,1685096930125,394.0,428.0
650,1685096930125,381.0,427.0
651,1685096930125,457.0,464.0
652,1685096930125,406.0,465.0
653,1685096930125,467.0,436.0
654,1685096930125,442.0,470.0
655,1685096930125,476.0,426.0
656,1685096930125,450.0,460.0
657,1685096930125,458.0,419.0
658,1685096930125,438.0,409.0
659,1685096930125,492.0,470.0
660,1685096930125,372.0,378.0
661,1685096930125,475.0,436.0
662,1685096930125,448.0,444.0
663,1685096930125,408.0,424.0
664,1685096930125,402.0,403.0
665,1685096930125,420.0,440.0
666,1685096930125,434.0,459.0
667,1685096930125,388.0,434.0
668,1685096930125,471.0,453.0
669,1685096930125,427.0,470.0
670,1685096930125,465.0,423.0
671,1685096930125,432.0,467.0
672,1685096930125,464.0,410.0
673,1685096930125,460.0,447.0
674,1685096930125,462.0,441.0
675,1685096930125,412.0,382.0
676,1685096930125,509.0,470.0
677,1685096930125,393.0,409.0
678,1685096930125,433.0,407.0
679,1685096930125,458.0,435.0
680,1685096930125,411.0,432.0
681,1685096930125,390.0,412.0
682,1685096930125,403.0,431.0
683,1685096930125,452.0,460.0
684,1685096930125,402.0,453.0
685,1685096930125,473.0,445.0
686,1685096930125,424.0,471.0
687,1685096930125,467.0,420.0
688,1685096930125,444.0,462.0
689,1685096930125,466.0,418.0
690,1685096930125,462.0,426.0
691,1685096930125,475.0,452.0
692,1685096930125,390.0,376.0
693,1685096930125,508.0,461.0
694,1685096930125,417.0,430.0
695,1685096930125,392.0,400.0
696,1685096930125,428.0,408.0
697,1685096930125,421.0,438.0
698,1685096930125,405.0,433.0
699,1685096930125,374.0,422.0
700,1685096930125,457.0,464.0
701,1685096930125,393.0,456.0
702,1685096930125,465.0,439.0
703,1685096930125,434.0,469.0
704,1685096930125,474.0,424.0
705,1685096930125,466.0,460.0
706,1685096930125,463.0,425.0
707,1685096930125,449.0,401.0
708,1685096930125,503.0,477.0
709,1685096930125,373.0,382.0
710,1685096930125,480.0,433.0
711,1685096930125,459.0,452.0
712,1685096930125,397.0,412.0
713,1685096930125,401.0,406.0
714,1685096930125,407.0,427.0
715,1685096930125,434.0,457.0
716,1685096930125,374.0,437.0
717,1685096930125,466.0,455.0
718,1685096930125,423.0,473.0
719,1685096930125,470.0,430.0
720,1685096930125,446.0,463.0
721,1685096930125,481.0,412.0
722,1685096930125,471.0,449.0
723,1685096930125,460.0,447.0
724,1685096930125,408.0,377.0
725,1685096930125,516.0,472.0
726,1685096930125,381.0,414.0
727,1685096930125,416.0,406.0
728,1685096930125,447.0,432.0
729,1685096930125,416.0,435.0
730,1685096930125,391.0,418.0
731,1685096930125,388.0,420.0
732,1685096930125,467.0,468.0
733,1685096930125,397.0,453.0
734,1685096930125,477.0,455.0
735,1685096930125,425.0,472.0
736,1685096930125,476.0,419.0
737,1685096930125,449.0,462.0
738,1685096930125,458.0,405.0
739,1685096930125,461.0,419.0
740,1685096930125,468.0,453.0
741,1685096930125,376.0,379.0
742,1685096930125,498.0,452.0
743,1685096930125,431.0,439.0
744,1685096930125,386.0,402.0
745,1685096930125,423.0,409.0
746,1685096930125,423.0,441.0
747,1685096930125,422.0,446.0
748,1685096930125,379.0,425.0
749,1685096930125,470.0,461.0
750,1685096930125,407.0,460.0
751,1685096930125,470.0,425.0
752,1685096930125,431.0,469.0
753,1685096930125,464.0,399.0
754,1685096930125,460.0,459.0
755,1685096930125,452.0,421.0
756,1685096930125,440.0,394.0
757,1685096930125,504.0,476.0
758,1685096930125,372.0,388.0
759,1685096930125,471.0,427.0
760,1685096930125,468.0,449.0
761,1685096930125,397.0,430.0
762,1685096930125,395.0,410.0
763,1685096930125,402.0,426.0
764,1685096930125,439.0,458.0
765,1685096930125,377.0,438.0
766,1685096930125,470.0,456.0
767,1685096930125,427.0,476.0
768,1685096930125,468.0,422.0
769,1685096930125,443.0,468.0
770,1685096930125,476.0,416.0
771,1685096930125,469.0,443.0
772,1685096930125,474.0,445.0
773,1685096930125,401.0,382.0
774,1685096930125,515.0,467.0
775,1685096930125,385.0,413.0
776,1685096930125,408.0,404.0
777,1685096930125,446.0,423.0
778,1685096930125,412.0,441.0
779,1685096930125,394.0,413.0
780,1685096930125,369.0,417.0
781,1685096930125,460.0,464.0
782,1685096930125,397.0,464.0
783,1685096930125,472.0,443.0
784,1685096930125,427.0,477.0
785,1685096930125,481.0,415.0
786,1685096930125,453.0,465.0
787,1685096930125,459.0,413.0
788,1685096930125,458.0,422.0
789,1685096930125,483.0,459.0
790,1685096930125,370.0,365.0
791,1685096930125,490.0,450.0
792,1685096930125,431.0,433.0
793,1685096930125,390.0,406.0
794,1685096930125,413.0,410.0
795,1685096930125,419.0,441.0
796,1685096930125,419.0,444.0
797,1685096930125,374.0,430.0
798,1685096930125,470.0,463.0
799,1685096930125,412.0,468.0
800,1685096930125,471.0,424.0
801,1685096930125,436.0,469.0
802,1685096930125,472.0,414.0
803,1685096930125,465.0,456.0
804,1685096930125,457.0,427.0
805,1685096930125,429.0,392.0
806,1685096930125,504.0,471.0
807,1685096930125,373.0,391.0
808,1685096930125,454.0,430.0
809,1685096930125,471.0,453.0
810,1685096930125,408.0,430.0
811,1685096930125,393.0,405.0
812,1685096930125,410.0,432.0
813,1685096930125,432.0,441.0
814,1685096930125,399.0,457.0
815,1685096930125,482.0,449.0
816,1685096930125,426.0,470.0
817,1685096930125,469.0,421.0
818,1685096930125,437.0,470.0
819,1685096930125,463.0,411.0
820,1685096930125,468.0,438.0
821,1685096930125,469.0,443.0
822,1685096930125,391.0,379.0
823,1685096930125,514.0,470.0
824,1685096930125,406.0,415.0
825,1685096930125,403.0,404.0
826,1685096930125,444.0,423.0
827,1685096930125,419.0,444.0
828,1685096930125,400.0,416.0
829,1685096930125,377.0,424.0
830,1685096930125,455.0,460.0
831,1685096930125,395.0,456.0
832,1685096930125,466.0,433.0
833,1685096930125,428.0,478.0
834,1685096930125,475.0,421.0
835,1685096930125,457.0,464.0
836,1685096930125,469.0,424.0
837,1685096930125,455.0,419.0
838,1685096930125,497.0,467.0
839,1685096930125,373.0,376.0
840,1685096930125,497.0,448.0
841,1685096930125,444.0,442.0
842,1685096930125,385.0,405.0
843,1685096930125,405.0,406.0
844,1685096930125,409.0,428.0
845,1685096930125,425.0,448.0
846,1685096930125,363.0,427.0
847,1685096930125,464.0,460.0
848,1685096930125,415.0,476.0
849,1685096930125,476.0,427.0
850,1685096930125,442.0,473.0
851,1685096930125,480.0,417.0
852,1685096930125,470.0,453.0
853,1685096930125,459.0,426.0
854,1685096930125,433.0,397.0
855,1685096930125,509.0,472.0
856,1685096930125,373.0,392.0
857,1685096930125,444.0,418.0
858,1685096930125,462.0,444.0
859,1685096930125,403.0,425.0
860,1685096930125,393.0,403.0
861,1685096930125,388.0,424.0
862,1685096930125,458.0,473.0
863,1685096930125,387.0,449.0
864,1685096930125,487.0,460.0
865,1685096930125,425.0,472.0
866,1685096930125,467.0,417.0
867,1685096930125,442.0,469.0
868,1685096930125,465.0,416.0
869,1685096930125,464.0,437.0
870,1685096930125,461.0,445.0
871,1685096930125,386.0,367.0
872,1685096930125,507.0,468.0
873,1685096930125,402.0,419.0
874,1685096930125,400.0,398.0
875,1685096930125,439.0,422.0
876,1685096930125,424.0,440.0
877,1685096930125,406.0,432.0
878,1685096930125,379.0,428.0
879,1685096930125,469.0,464.0
880,1685096930125,403.0,460.0
881,1685096930125,460.0,430.0
882,1685096930125,429.0,466.0
883,1685096930125,476.0,418.0
884,1685096930125,441.0,450.0
885,1685096930125,458.0,420.0
886,1685096930125,445.0,408.0
887,1685096930125,496.0,468.0
888,1685096930125,374.0,383.0
889,1685096930125,496.0,443.0
890,1685096930125,458.0,452.0
891,1685096930125,398.0,416.0
892,1685096930125,411.0,398.0
893,1685096930125,418.0,438.0
894,1685096930125,421.0,449.0
895,1685096930125,361.0,429.0
896,1685096930125,463.0,455.0
897,1685096930125,410.0,468.0
898,1685096930125,464.0,425.0
899,1685096930125,433.0,471.0
900,1685096930125,480.0,416.0
901,1685096930125,473.0,452.0
902,1685096930125,465.0,440.0
903,1685096930125,430.0,396.0
904,1685096930125,517.0,469.0
905,1685096930125,381.0,399.0
906,1685096930125,436.0,407.0
907,1685096930125,464.0,450.0
908,1685096930125,398.0,425.0
909,1685096930125,382.0,403.0
910,1685096930125,385.0,421.0
911,1685096930141,448.0,460.0
912,1685096930141,390.0,449.0
913,1685096930141,485.0,458.0
914,1685096930141,428.0,475.0
915,1685096930141,476.0,426.0
916,1685096930141,450.0,468.0
917,1685096930141,473.0,420.0
918,1685096930141,464.0,427.0
919,1685096930141,467.0,447.0
920,1685096930141,385.0,373.0
921,1685096930141,505.0,459.0
922,1685096930141,407.0,428.0
923,1685096930141,387.0,406.0
924,1685096930141,425.0,416.0
925,1685096930141,422.0,440.0
926,1685096930141,412.0,432.0
927,1685096930141,385.0,426.0
928,1685096930141,463.0,465.0
929,1685096930141,405.0,461.0
930,1685096930141,469.0,430.0
931,1685096930141,427.0,467.0
932,1685096930141,475.0,417.0
933,1685096930141,445.0,454.0
934,1685096930141,450.0,416.0
935,1685096930141,441.0,406.0
936,1685096930141,492.0,469.0
937,1685096930141,369.0,381.0
938,1685096930141,483.0,437.0
939,1685096930141,454.0,447.0
940,1685096930141,397.0,416.0
941,1685096930141,411.0,404.0
942,1685096930141,407.0,426.0
943,1685096930141,438.0,455.0
944,1685096930141,377.0,430.0
945,1685096930141,475.0,455.0
946,1685096930141,413.0,468.0
947,1685096930141,453.0,422.0
948,1685096930141,427.0,467.0
949,1685096930141,473.0,421.0
950,1685096930141,464.0,452.0
951,1685096930141,462.0,435.0
952,1685096930141,420.0,385.0
953,1685096930141,520.0,480.0
954,1685096930141,391.0,403.0
955,1685096930141,438.0,410.0
956,1685096930141,463.0,442.0
957,1685096930141,403.0,428.0
958,1685096930141,392.0,411.0
959,1685096930141,389.0,425.0
960,1685096930141,450.0,458.0
961,1685096930141,381.0,449.0
962,1685096930141,480.0,450.0
963,1685096930141,426.0,476.0
964,1685096930141,475.0,428.0
965,1685096930141,450.0,462.0
966,1685096930141,469.0,425.0
967,1685096930141,471.0,429.0
968,1685096930141,470.0,446.0
969,1685096930141,388.0,377.0
970,1685096930141,506.0,457.0
971,1685096930141,417.0,430.0
972,1685096930141,389.0,400.0
973,1685096930141,420.0,408.0
974,1685096930141,416.0,444.0
975,1685096930141,402.0,429.0
976,1685096930141,371.0,423.0
977,1685096930141,468.0,467.0
978,1685096930141,397.0,464.0
979,1685096930141,475.0,433.0
980,1685096930141,433.0,469.0
981,1685096930141,481.0,422.0
982,1685096930141,460.0,453.0
983,1685096930141,450.0,423.0
984,1685096930141,443.0,402.0
985,1685096930141,505.0,473.0
986,1685096930141,368.0,377.0
987,1685096930141,476.0,441.0
988,1685096930141,456.0,440.0
989,1685096930141,398.0,423.0
990,1685096930141,403.0,407.0
991,1685096930141,413.0,433.0
992,1685096930141,437.0,454.0
993,1685096930141,378.0,442.0
994,1685096930141,478.0,459.0
995,1685096930141,420.0,469.0
996,1685096930141,472.0,430.0
997,1685096930141,437.0,464.0
998,1685096930141,476.0,416.0
999,1685096930141,461.0,452.0
1000,1685096930141,464.0,438.0
1001,1685096930141,408.0,380.0
1002,1685096930141,514.0,470.0
1003,1685096930141,390.0,404.0
1004,1685096930141,425.0,407.0
1005,1685096930141,458.0,435.0
1006,1685096930141,412.0,440.0
1007,1685096930141,401.0,418.0
1008,1685096930141,391.0,432.0
1009,1685096930141,463.0,464.0
1010,1685096930141,387.0,441.0
1011,1685096930141,482.0,445.0
1012,1685096930141,433.0,478.0
1013,1685096930141,465.0,410.0
1014,1685096930141,439.0,464.0
1015,1685096930141,461.0,415.0
1016,1685096930141,463.0,428.0
1017,1685096930141,470.0,458.0
1018,1685096930141,380.0,377.0
1019,1685096930141,504.0,457.0
1020,1685096930141,426.0,436.0
1021,1685096930141,393.0,398.0
1022,1685096930141,424.0,414.0
1023,1685096930141,412.0,430.0
1024,1685096930141,413.0,436.0
1025,1685096930141,375.0,425.0
1026,1685096930141,471.0,464.0
1027,1685096930141,395.0,465.0
1028,1685096930141,464.0,432.0
1029,1685096930141,435.0,472.0
1030,1685096930141,480.0,424.0
1031,1685096930141,460.0,458.0
1032,1685096930141,461.0,421.0
1033,1685096930141,442.0,400.0
1034,1685096930141,512.0,471.0
1035,1685096930141,373.0,389.0
1036,1685096930141,472.0,432.0
1037,1685096930141,458.0,446.0
1038,1685096930141,390.0,421.0
1039,1685096930141,400.0,404.0
1040,1685096930141,402.0,437.0
1041,1685096930141,439.0,453.0
1042,1685096930141,368.0,435.0
1043,1685096930141,477.0,457.0
1044,1685096930141,431.0,477.0
1045,1685096930141,479.0,431.0
1046,1685096930141,441.0,466.0
1047,1685096930141,480.0,419.0
1048,1685096930141,468.0,445.0
1049,1685096930141,466.0,440.0
1050,1685096930141,406.0,382.0
1051,1685096930141,524.0,473.0
1052,1685096930141,387.0,410.0
1053,1685096930141,417.0,408.0
1054,1685096930141,452.0,428.0
1055,1685096930141,414.0,439.0
1056,1685096930141,394.0,421.0
1057,1685096930141,385.0,423.0
1058,1685096930141,473.0,471.0
1059,1685096930141,391.0,452.0
1060,1685096930141,470.0,441.0
1061,1685096930141,427.0,471.0
1062,1685096930141,471.0,411.0
1063,1685096930141,443.0,466.0
1064,1685096930141,459.0,411.0
1065,1685096930141,454.0,422.0
1066,1685096930141,480.0,458.0
1067,1685096930141,372.0,374.0
1068,1685096930141,500.0,453.0
1069,1685096930141,428.0,429.0
1070,1685096930141,392.0,407.0
1071,1685096930141,424.0,413.0
1072,1685096930141,417.0,439.0
1073,1685096930141,416.0,443.0
1074,1685096930141,369.0,422.0
1075,1685096930141,476.0,459.0
1076,1685096930141,405.0,466.0
1077,1685096930141,467.0,421.0
1078,1685096930141,437.0,474.0
1079,1685096930141,470.0,411.0
1080,1685096930141,461.0,456.0
1081,1685096930141,454.0,417.0
1082,1685096930141,441.0,399.0
1083,1685096930141,510.0,474.0
1084,1685096930141,374.0,394.0
1085,1685096930141,466.0,434.0
1086,1685096930141,463.0,448.0
1087,1685096930141,401.0,425.0
1088,1685096930141,393.0,408.0
1089,1685096930141,403.0,426.0
1090,1685096930141,444.0,458.0
1091,1685096930141,376.0,438.0
1092,1685096930141,476.0,444.0
1093,1685096930141,420.0,477.0
1094,1685096930141,470.0,425.0
1095,1685096930141,442.0,468.0
1096,1685096930141,477.0,414.0
1097,1685096930141,470.0,444.0
1098,1685096930141,469.0,437.0
1099,1685096930141,397.0,382.0
1100,1685096930141,520.0,471.0
1101,1685096930141,386.0,413.0
1102,1685096930141,415.0,411.0
1103,1685096930141,450.0,426.0
1104,1685096930141,407.0,434.0
1105,1685096930141,405.0,420.0
1106,1685096930141,372.0,420.0
1107,1685096930141,460.0,468.0
1108,1685096930141,389.0,457.0
1109,1685096930141,471.0,444.0
1110,1685096930141,429.0,469.0
1111,1685096930141,477.0,420.0
1112,1685096930141,458.0,470.0
1113,1685096930141,464.0,412.0
1114,1685096930141,464.0,423.0
1115,1685096930141,491.0,459.0
1116,1685096930141,377.0,378.0
1117,1685096930141,497.0,448.0
1118,1685096930141,422.0,432.0
1119,1685096930141,379.0,410.0
1120,1685096930141,417.0,406.0
1121,1685096930141,416.0,442.0
1122,1685096930141,413.0,443.0
1123,1685096930141,370.0,433.0
1124,1685096930141,475.0,468.0
1125,1685096930141,407.0,466.0
1126,1685096930141,474.0,428.0
1127,1685096930141,434.0,467.0
1128,1685096930141,473.0,415.0
1129,1685096930141,463.0,454.0
1130,1685096930141,457.0,425.0
1131,1685096930141,430.0,393.0
1132,1685096930141,512.0,479.0
1133,1685096930141,370.0,392.0
1134,1685096930141,455.0,427.0
1135,1685096930141,468.0,445.0
1136,1685096930141,397.0,430.0
1137,1685096930141,397.0,402.0
1138,1685096930141,405.0,442.0
1139,1685096930141,451.0,460.0
1140,1685096930141,377.0,439.0
1141,1685096930141,481.0,450.0
1142,1685096930141,429.0,477.0
1143,1685096930141,465.0,411.0
1144,1685096930141,439.0,473.0
1145,1685096930141,465.0,411.0
1146,1685096930141,460.0,441.0
1147,1685096930141,466.0,439.0
1148,1685096930141,390.0,376.0
1149,1685096930141,520.0,473.0
1150,1685096930141,397.0,423.0
1151,1685096930141,409.0,401.0
1152,1685096930141,455.0,439.0
1153,1685096930141,413.0,432.0
1154,1685096930141,392.0,417.0
1155,1685096930141,375.0,424.0
1156,1685096930141,464.0,461.0
1157,1685096930141,394.0,462.0
1158,1685096930141,465.0,435.0
1159,1685096930141,423.0,470.0
1160,1685096930141,474.0,418.0
1161,1685096930141,458.0,463.0
1162,1685096930141,464.0,415.0
1163,1685096930141,459.0,421.0
1164,1685096930141,495.0,467.0
1165,1685096930141,378.0,382.0
1166,1685096930141,500.0,450.0
1167,1685096930141,433.0,442.0
1168,1685096930141,384.0,406.0
1169,1685096930141,406.0,401.0
1170,1685096930141,407.0,437.0
1171,1685096930141,410.0,437.0
1172,1685096930141,357.0,420.0
1173,1685096930141,473.0,463.0
1174,1685096930141,403.0,467.0
1175,1685096930141,479.0,433.0
1176,1685096930141,442.0,474.0
1177,1685096930141,480.0,420.0
1178,1685096930141,476.0,462.0
1179,1685096930141,461.0,428.0
1180,1685096930141,434.0,395.0
1181,1685096930141,510.0,475.0
1182,1685096930141,365.0,389.0
1183,1685096930141,452.0,417.0
1184,1685096930141,464.0,447.0
1185,1685096930141,392.0,426.0
1186,1685096930141,388.0,415.0
1187,1685096930141,404.0,429.0
1188,1685096930141,453.0,463.0
1189,1685096930141,382.0,443.0
1190,1685096930141,486.0,456.0
1191,1685096930141,434.0,474.0
1192,1685096930141,471.0,418.0
1193,1685096930141,446.0,465.0
1194,1685096930141,464.0,410.0
1195,1685096930141,460.0,437.0
1196,1685096930141,467.0,438.0
1197,1685096930141,383.0,371.0
1198,1685096930141,511.0,459.0
1199,1685096930141,391.0,418.0
1200,1685096930141,405.0,415.0
1201,1685096930141,447.0,429.0
1202,1685096930141,420.0,443.0
1203,1685096930141,404.0,422.0
1204,1685096930141,379.0,423.0
1205,1685096930141,476.0,464.0
1206,1685096930141,400.0,461.0
1207,1685096930141,471.0,435.0
1208,1685096930141,421.0,464.0
1209,1685096930141,464.0,410.0
1210,1685096930141,446.0,461.0
1211,1685096930141,459.0,421.0
1212,1685096930141,451.0,414.0
1213,1685096930141,496.0,466.0
1214,1685096930141,369.0,380.0
1215,1685096930141,501.0,450.0
1216,1685096930141,442.0,441.0
1217,1685096930141,385.0,410.0
1218,1685096930141,405.0,407.0
1219,1685096930141,413.0,436.0
1220,1685096930141,424.0,447.0
1221,1685096930141,356.0,418.0
1222,1685096930141,470.0,455.0
1223,1685096930141,400.0,461.0
1224,1685096930141,464.0,429.0
1225,1685096930141,443.0,471.0
1226,1685096930141,476.0,417.0
1227,1685096930141,468.0,451.0
1228,1685096930141,470.0,435.0
1229,1685096930141,430.0,402.0
1230,1685096930141,513.0,470.0
1231,1685096930141,373.0,397.0
1232,1685096930141,448.0,416.0
1233,1685096930141,463.0,445.0
1234,1685096930141,395.0,425.0
1235,1685096930141,382.0,406.0
1236,1685096930141,383.0,423.0
1237,1685096930141,456.0,468.0
1238,1685096930141,379.0,449.0
1239,1685096930141,486.0,451.0
1240,1685096930141,431.0,484.0
1241,1685096930141,471.0,423.0
1242,1685096930141,444.0,465.0
1243,1685096930141,477.0,414.0
1244,1685096930141,472.0,432.0
1245,1685096930141,464.0,446.0
1246,1685096930141,388.0,369.0
1247,1685096930141,511.0,464.0
1248,1685096930141,394.0,410.0
1249,1685096930141,398.0,404.0
1250,1685096930141,445.0,424.0
1251,1685096930141,412.0,444.0
1252,1685096930141,400.0,425.0
1253,1685096930141,373.0,423.0
1254,1685096930141,463.0,457.0
1255,1685096930141,406.0,466.0
1256,1685096930141,479.0,438.0
1257,1685096930141,426.0,462.0
1258,1685096930141,471.0,416.0
1259,1685096930141,451.0,460.0
1260,1685096930155,459.0,417.0
1261,1685096930155,444.0,410.0
1262,1685096930155,498.0,460.0
1263,1685096930155,365.0,376.0
1264,1685096930155,495.0,448.0
1265,1685096930155,444.0,450.0
1266,1685096930155,381.0,405.0
1267,1685096930155,415.0,415.0
1268,1685096930155,413.0,439.0
1269,1685096930155,434.0,455.0
1270,1685096930155,369.0,429.0
1271,1685096930155,473.0,460.0
1272,1685096930155,409.0,467.0
1273,1685096930155,464.0,418.0
1274,1685096930155,429.0,460.0
1275,1685096930155,466.0,411.0
1276,1685096930155,463.0,452.0
1277,1685096930155,456.0,425.0
1278,1685096930155,433.0,394.0
1279,1685096930155,520.0,476.0
1280,1685096930155,377.0,388.0
1281,1685096930155,452.0,419.0
1282,1685096930155,472.0,451.0
1283,1685096930155,398.0,432.0
1284,1685096930155,385.0,399.0
1285,1685096930155,393.0,433.0
1286,1685096930155,453.0,456.0
1287,1685096930155,368.0,446.0
1288,1685096930155,488.0,455.0
1289,1685096930155,427.0,475.0
1290,1685096930155,466.0,423.0
1291,1685096930155,449.0,469.0
1292,1685096930155,473.0,415.0
1293,1685096930155,474.0,434.0
1294,1685096930155,478.0,449.0
1295,1685096930155,383.0,367.0
1296,1685096930155,519.0,468.0
1297,1685096930155,399.0,417.0
1298,1685096930155,388.0,396.0
1299,1685096930155,439.0,418.0
1300,1685096930155,407.0,436.0
1301,1685096930155,396.0,424.0
1302,1685096930155,368.0,426.0
1303,1685096930155,470.0,459.0
1304,1685096930155,398.0,464.0
1305,1685096930155,476.0,440.0
1306,1685096930155,437.0,474.0
1307,1685096930155,492.0,431.0
1308,1685096930155,461.0,460.0
1309,1685096930155,465.0,419.0
1310,1685096930155,449.0,405.0
1311,1685096930155,494.0,458.0
1312,1685096930155,360.0,374.0
1313,1685096930155,487.0,441.0
1314,1685096930157,438.0,447.0
1315,1685096930157,380.0,409.0
1316,1685096930157,414.0,416.0
1317,1685096930157,407.0,441.0
1318,1685096930157,431.0,455.0
1319,1685096930157,375.0,439.0
1320,1685096930157,483.0,457.0
1321,1685096930157,413.0,463.0
1322,1685096930157,474.0,425.0
1323,1685096930157,428.0,462.0
1324,1685096930157,469.0,410.0
1325,1685096930157,462.0,447.0
1326,1685096930157,454.0,429.0
1327,1685096930157,420.0,389.0
1328,1685096930157,512.0,472.0
1329,1685096930157,374.0,392.0
1330,1685096930157,445.0,429.0
1331,1685096930157,473.0,450.0
1332,1685096930157,407.0,431.0
1333,1685096930157,397.0,410.0
1334,1685096930157,389.0,429.0
1335,1685096930157,445.0,454.0
1336,1685096930157,383.0,442.0
1337,1685096930157,486.0,453.0
1338,1685096930157,422.0,468.0
1339,1685096930157,459.0,416.0
1340,1685096930157,442.0,460.0
1341,1685096930157,470.0,417.0
1342,1685096930157,469.0,430.0
1343,1685096930157,475.0,454.0
1344,1685096930157,390.0,375.0
1345,1685096930157,521.0,466.0
1346,1685096930157,403.0,423.0
1347,1685096930157,391.0,402.0
1348,1685096930157,438.0,421.0
1349,1685096930157,407.0,441.0
1350,1685096930157,398.0,421.0
1351,1685096930157,366.0,431.0
1352,1685096930157,465.0,463.0
1353,1685096930157,388.0,464.0
1354,1685096930157,474.0,434.0
1355,1685096930157,439.0,474.0
1356,1685096930157,486.0,425.0
1357,1685096930157,462.0,463.0
1358,1685096930157,463.0,414.0
1359,1685096930157,452.0,414.0
1360,1685096930157,500.0,463.0
1361,1685096930157,366.0,376.0
1362,1685096930157,487.0,438.0
1363,1685096930157,446.0,448.0
1364,1685096930157,386.0,409.0
1365,1685096930157,401.0,405.0
1366,1685096930157,403.0,440.0
1367,1685096930157,425.0,449.0
1368,1685096930157,355.0,427.0
1369,1685096930157,483.0,464.0
1370,1685096930157,406.0,471.0
1371,1685096930157,474.0,423.0
1372,1685096930157,444.0,471.0
1373,1685096930157,477.0,412.0
1374,1685096930157,471.0,451.0
1375,1685096930157,462.0,427.0
1376,1685096930157,422.0,386.0
1377,1685096930157,509.0,468.0
1378,1685096930157,372.0,392.0
1379,1685096930157,436.0,418.0
1380,1685096930157,463.0,445.0
1381,1685096930157,400.0,438.0
1382,1685096930157,392.0,413.0
1383,1685096930157,389.0,435.0
1384,1685096930157,456.0,465.0
1385,1685096930157,378.0,447.0
1386,1685096930157,490.0,455.0
1387,1685096930157,433.0,478.0
1388,1685096930157,476.0,413.0
1389,1685096930157,453.0,471.0
1390,1685096930157,464.0,413.0
1391,1685096930157,466.0,436.0
1392,1685096930157,477.0,446.0
1393,1685096930157,387.0,369.0
1394,1685096930157,513.0,466.0
1395,1685096930157,403.0,418.0
1396,1685096930157,395.0,406.0
1397,1685096930157,439.0,422.0
1398,1685096930157,406.0,441.0
1399,1685096930157,406.0,431.0
1400,1685096930157,380.0,427.0
1401,1685096930157,479.0,467.0
1402,1685096930157,394.0,450.0
1403,1685096930157,473.0,433.0
1404,1685096930157,408.0,437.0
1405,1685096930157,492.0,432.0
1406,1685096930157,451.0,457.0
1407,1685096930157,460.0,419.0
1408,1685096930157,450.0,415.0
1409,1685096930157,497.0,462.0
1410,1685096930157,366.0,374.0
1411,1685096930157,490.0,441.0
1412,1685096930157,441.0,444.0
1413,1685096930157,384.0,415.0
1414,1685096930157,404.0,410.0
1415,1685096930157,401.0,435.0
1416,1685096930157,429.0,448.0
1417,1685096930157,361.0,426.0
1418,1685096930157,479.0,464.0
1419,1685096930157,413.0,466.0
1420,1685096930157,472.0,436.0
1421,1685096930157,432.0,466.0
1422,1685096930157,478.0,411.0
1423,1685096930157,467.0,457.0
1424,1685096930157,462.0,423.0
1425,1685096930157,429.0,396.0
1426,1685096930157,515.0,473.0
1427,1685096930157,376.0,400.0
1428,1685096930157,444.0,420.0
1429,1685096930157,462.0,445.0
1430,1685096930157,403.0,430.0
1431,1685096930157,392.0,407.0
1432,1685096930157,388.0,428.0
1433,1685096930157,455.0,470.0
1434,1685096930157,372.0,438.0
1435,1685096930157,487.0,460.0
1436,1685096930157,431.0,476.0
1437,1685096930157,474.0,422.0
1438,1685096930157,457.0,464.0
1439,1685096930157,472.0,412.0
1440,1685096930157,470.0,441.0
1441,1685096930157,478.0,444.0
1442,1685096930157,386.0,369.0
1443,1685096930157,515.0,467.0
1444,1685096930157,394.0,417.0
1445,1685096930157,389.0,403.0
1446,1685096930157,431.0,412.0
1447,1685096930157,406.0,441.0
1448,1685096930157,401.0,429.0
1449,1685096930157,369.0,423.0
1450,1685096930157,472.0,463.0
1451,1685096930157,396.0,454.0
1452,1685096930157,475.0,439.0
1453,1685096930157,428.0,468.0
1454,1685096930157,477.0,417.0
1455,1685096930157,455.0,458.0
1456,1685096930157,450.0,411.0
1457,1685096930157,452.0,411.0
1458,1685096930157,498.0,460.0
1459,1685096930157,359.0,372.0
1460,1685096930157,494.0,451.0
1461,1685096930157,441.0,447.0
1462,1685096930157,379.0,415.0
1463,1685096930157,412.0,416.0
1464,1685096930157,412.0,436.0
1465,1685096930157,435.0,454.0
1466,1685096930157,369.0,433.0
1467,1685096930157,478.0,454.0
1468,1685096930157,418.0,470.0
1469,1685096930157,469.0,423.0
1470,1685096930157,435.0,468.0
1471,1685096930157,471.0,411.0
1472,1685096930157,463.0,451.0
1473,1685096930157,458.0,420.0
1474,1685096930157,421.0,387.0
1475,1685096930157,517.0,475.0
1476,1685096930157,378.0,399.0
1477,1685096930157,453.0,427.0
1478,1685096930157,469.0,444.0
1479,1685096930157,399.0,437.0
1480,1685096930157,395.0,411.0
1481,1685096930157,389.0,426.0
1482,1685096930157,453.0,460.0
1483,1685096930157,374.0,441.0
1484,1685096930157,480.0,453.0
1485,1685096930157,424.0,467.0
1486,1685096930157,472.0,425.0
1487,1685096930157,445.0,457.0
1488,1685096930157,468.0,414.0
1489,1685096930157,474.0,438.0
1490,1685096930157,481.0,446.0
1491,1685096930157,386.0,376.0
1492,1685096930157,522.0,470.0
1493,1685096930157,400.0,422.0
1494,1685096930157,388.0,401.0
1495,1685096930157,435.0,418.0
1496,1685096930157,402.0,442.0
1497,1685096930157,396.0,426.0
1498,1685096930157,362.0,424.0
1499,1685096930157,477.0,469.0
1500,1685096930157,394.0,460.0
1501,1685096930157,471.0,440.0
1502,1685096930157,437.0,467.0
1503,1685096930157,486.0,422.0
1504,1685096930157,463.0,461.0
1505,1685096930157,464.0,409.0
1506,1685096930157,457.0,413.0
1507,1685096930157,499.0,457.0
1508,1685096930157,365.0,376.0
1509,1685096930157,489.0,444.0
1510,1685096930157,436.0,440.0
1511,1685096930157,375.0,410.0
1512,1685096930157,406.0,410.0
1513,1685096930157,406.0,443.0
1514,1685096930157,421.0,452.0
1515,1685096930157,368.0,436.0
1516,1685096930157,479.0,456.0
1517,1685096930157,419.0,467.0
1518,1685096930157,479.0,433.0
1519,1685096930157,442.0,470.0
1520,1685096930157,480.0,409.0
1521,1685096930157,469.0,454.0
1522,1685096930157,455.0,420.0
1523,1685096930157,420.0,390.0
1524,1685096930157,510.0,472.0
1525,1685096930157,367.0,396.0
1526,1685096930157,443.0,423.0
1527,1685096930157,469.0,454.0
1528,1685096930157,401.0,433.0
1529,1685096930157,396.0,414.0
1530,1685096930157,400.0,439.0
1531,1685096930157,456.0,469.0
1532,1685096930157,375.0,441.0
1533,1685096930157,485.0,456.0
1534,1685096930157,424.0,462.0
1535,1685096930157,461.0,414.0
1536,1685096930157,443.0,461.0
1537,1685096930157,462.0,408.0
1538,1685096930157,467.0,437.0
1539,1685096930157,471.0,447.0
1540,1685096930157,390.0,378.0
1541,1685096930157,522.0,464.0
1542,1685096930157,404.0,421.0
1543,1685096930157,397.0,401.0
1544,1685096930157,443.0,421.0
1545,1685096930157,415.0,441.0
1546,1685096930157,392.0,424.0
1547,1685096930157,367.0,420.0
1548,1685096930157,473.0,470.0
1549,1685096930157,394.0,456.0
1550,1685096930157,468.0,434.0
1551,1685096930157,432.0,474.0
1552,1685096930157,474.0,415.0
1553,1685096930157,463.0,462.0
1554,1685096930157,467.0,416.0
1555,1685096930157,455.0,412.0
1556,1685096930157,504.0,470.0
1557,1685096930157,369.0,378.0
1558,1685096930157,493.0,443.0
1559,1685096930157,439.0,442.0
1560,1685096930157,379.0,413.0
1561,1685096930157,399.0,401.0
1562,1685096930157,400.0,432.0
1563,1685096930157,415.0,439.0
1564,1685096930157,355.0,428.0
1565,1685096930157,472.0,461.0
1566,1685096930157,412.0,472.0
1567,1685096930157,478.0,438.0
1568,1685096930157,450.0,473.0
1569,1685096930157,480.0,416.0
1570,1685096930157,476.0,455.0
1571,1685096930157,466.0,427.0
1572,1685096930157,429.0,394.0
1573,1685096930157,507.0,467.0
1574,1685096930157,363.0,387.0
1575,1685096930157,448.0,427.0
1576,1685096930157,454.0,440.0
1577,1685096930157,398.0,435.0
1578,1685096930157,383.0,411.0
1579,1685096930157,387.0,430.0
1580,1685096930157,458.0,472.0
1581,1685096930157,381.0,446.0
1582,1685096930157,495.0,456.0
1583,1685096930157,426.0,475.0
1584,1685096930157,471.0,412.0
1585,1685096930157,444.0,461.0
1586,1685096930157,465.0,408.0
1587,1685096930157,465.0,439.0
1588,1685096930157,470.0,445.0
1589,1685096930157,383.0,372.0
1590,1685096930157,514.0,466.0
1591,1685096930157,397.0,417.0
1592,1685096930157,401.0,404.0
1593,1685096930157,444.0,430.0
1594,1685096930157,417.0,446.0
1595,1685096930157,400.0,430.0
1596,1685096930157,383.0,430.0
1597,1685096930157,464.0,462.0
1598,1685096930157,399.0,460.0
1599,1685096930157,461.0,435.0
1600,1685096930157,422.0,472.0
1601,1685096930157,466.0,415.0
1602,1685096930157,447.0,464.0
1603,1685096930157,457.0,407.0
1604,1685096930157,451.0,418.0
1605,1685096930157,501.0,466.0
1606,1685096930157,368.0,378.0
1607,1685096930157,505.0,448.0
1608,1685096930157,446.0,442.0
1609,1685096930157,390.0,413.0
1610,1685096930157,408.0,403.0
1611,1685096930157,414.0,446.0
1612,1685096930157,412.0,454.0
1613,1685096930157,358.0,425.0
1614,1685096930157,464.0,455.0
1615,1685096930157,403.0,465.0
1616,1685096930157,472.0,425.0
1617,1685096930157,439.0,478.0
1618,1685096930157,477.0,417.0
1619,1685096930157,470.0,460.0
1620,1685096930157,466.0,425.0
1621,1685096930157,435.0,399.0
1622,1685096930157,520.0,468.0
1623,1685096930157,369.0,385.0
1624,1685096930157,457.0,423.0
1625,1685096930157,457.0,448.0
1626,1685096930157,397.0,428.0
1627,1685096930157,383.0,412.0
1628,1685096930157,387.0,423.0
1629,1685096930157,453.0,468.0
1630,1685096930157,372.0,442.0
1631,1685096930157,486.0,462.0
1632,1685096930157,426.0,473.0
1633,1685096930157,472.0,419.0
1634,1685096930157,443.0,473.0
1635,1685096930157,471.0,412.0
1636,1685096930157,468.0,444.0
1637,1685096930157,473.0,446.0
1638,1685096930157,381.0,371.0
1639,1685096930157,511.0,468.0
1640,1685096930157,388.0,414.0
1641,1685096930157,400.0,403.0
1642,1685096930157,437.0,427.0
1643,1685096930157,416.0,448.0
1644,1685096930157,392.0,423.0
1645,1685096930157,375.0,427.0
1646,1685096930157,463.0,461.0
1647,1685096930157,392.0,456.0
1648,1685096930157,481.0,439.0
1649,1685096930157,430.0,465.0
1650,1685096930157,477.0,422.0
1651,1685096930157,448.0,461.0
1652,1685096930157,457.0,411.0
1653,1685096930157,454.0,419.0
1654,1685096930157,493.0,457.0
1655,1685096930157,367.0,376.0
1656,1685096930157,503.0,449.0
1657,1685096930157,439.0,437.0
1658,1685096930157,390.0,413.0
1659,1685096930157,408.0,407.0
1660,1685096930157,412.0,437.0
1661,1685096930157,423.0,447.0
1662,1685096930157,372.0,428.0
1663,1685096930157,471.0,460.0
1664,1685096930157,403.0,457.0
1665,1685096930157,467.0,429.0
1666,1685096930157,437.0,460.0
1667,1685096930157,474.0,422.0
1668,1685096930157,459.0,448.0
1669,1685096930157,456.0,429.0
1670,1685096930157,429.0,401.0
1671,1685096930157,520.0,470.0
1672,1685096930157,374.0,401.0
1673,1685096930157,466.0,424.0
1674,1685096930157,465.0,450.0
1675,1685096930157,403.0,436.0
1676,1685096930157,386.0,395.0
1677,1685096930157,404.0,434.0
1678,1685096930157,441.0,459.0
1679,1685096930157,366.0,437.0
1680,1685096930157,484.0,457.0
1681,1685096930157,418.0,472.0
1682,1685096930157,472.0,423.0
1683,1685096930157,441.0,467.0
1684,1685096930157,483.0,416.0
1685,1685096930157,483.0,445.0
1686,1685096930157,471.0,445.0
1687,1685096930157,390.0,379.0
1688,1685096930157,524.0,471.0
1689,1685096930157,385.0,410.0
1690,1685096930157,409.0,408.0
1691,1685096930157,440.0,426.0
1692,1685096930157,419.0,444.0
1693,1685096930157,391.0,416.0
1694,1685096930157,366.0,427.0
1695,1685096930157,461.0,460.0
1696,1685096930157,391.0,453.0
1697,1685096930157,469.0,449.0
1698,1685096930157,434.0,466.0
1699,1685096930157,486.0,428.0
1700,1685096930157,461.0,470.0
1701,1685096930157,465.0,416.0
1702,1685096930157,456.0,417.0
1703,1685096930157,505.0,461.0
1704,1685096930157,373.0,369.0
1705,1685096930157,509.0,450.0
1706,1685096930157,423.0,441.0
1707,1685096930157,381.0,408.0
1708,1685096930157,413.0,404.0
1709,1685096930157,407.0,449.0
1710,1685096930157,414.0,444.0
1711,1685096930157,384.0,433.0
1712,1685096930157,476.0,457.0
1713,1685096930157,420.0,455.0
1714,1685096930157,471.0,434.0
1715,1685096930157,439.0,467.0
1716,1685096930157,484.0,417.0
1717,1685096930157,454.0,453.0
1718,1685096930157,456.0,420.0
1719,1685096930157,435.0,407.0
1720,1685096930157,505.0,465.0
1721,1685096930157,365.0,391.0
1722,1685096930173,459.0,429.0
1723,1685096930173,466.0,448.0
1724,1685096930173,400.0,427.0
1725,1685096930173,388.0,412.0
1726,1685096930173,420.0,429.0
1727,1685096930173,452.0,461.0
1728,1685096930173,378.0,439.0
1729,1685096930173,481.0,457.0
1730,1685096930173,424.0,471.0
1731,1685096930173,466.0,424.0
1732,1685096930173,444.0,459.0
1733,1685096930173,466.0,410.0
1734,1685096930173,470.0,443.0
1735,1685096930173,473.0,444.0
1736,1685096930173,395.0,375.0
1737,1685096930173,522.0,479.0
1738,1685096930173,393.0,413.0
1739,1685096930173,411.0,403.0
1740,1685096930173,452.0,430.0
1741,1685096930173,407.0,431.0
1742,1685096930173,396.0,420.0
1743,1685096930173,374.0,421.0
1744,1685096930173,468.0,467.0
1745,1685096930173,385.0,452.0
1746,1685096930173,470.0,443.0
1747,1685096930173,420.0,470.0
1748,1685096930173,478.0,429.0
1749,1685096930173,459.0,462.0
1750,1685096930173,463.0,414.0
1751,1685096930173,455.0,420.0
1752,1685096930173,496.0,466.0
1753,1685096930173,368.0,375.0
1754,1685096930173,506.0,445.0
1755,1685096930173,431.0,438.0
1756,1685096930173,383.0,407.0
1757,1685096930173,409.0,405.0
1758,1685096930173,408.0,436.0
1759,1685096930173,409.0,439.0
1760,1685096930173,364.0,421.0
1761,1685096930173,473.0,464.0
1762,1685096930173,403.0,459.0
1763,1685096930173,481.0,433.0
1764,1685096930173,435.0,468.0
1765,1685096930173,479.0,419.0
1766,1685096930173,472.0,451.0
1767,1685096930173,456.0,419.0
1768,1685096930173,440.0,406.0
1769,1685096930173,518.0,476.0
1770,1685096930173,367.0,386.0
1771,1685096930173,465.0,433.0
1772,1685096930173,449.0,440.0
1773,1685096930173,401.0,433.0
1774,1685096930173,390.0,405.0
1775,1685096930173,398.0,433.0
1776,1685096930173,456.0,465.0
1777,1685096930173,368.0,442.0
1778,1685096930173,486.0,454.0
1779,1685096930173,436.0,470.0
1780,1685096930173,472.0,416.0
1781,1685096930173,447.0,467.0
1782,1685096930173,469.0,409.0
1783,1685096930173,467.0,446.0
1784,1685096930173,473.0,445.0
1785,1685096930173,386.0,368.0
1786,1685096930173,519.0,474.0
1787,1685096930173,385.0,414.0
1788,1685096930173,411.0,406.0
1789,1685096930173,449.0,429.0
1790,1685096930173,411.0,443.0
1791,1685096930173,399.0,417.0
1792,1685096930173,381.0,429.0
1793,1685096930173,471.0,460.0
1794,1685096930173,390.0,462.0
1795,1685096930173,471.0,435.0
1796,1685096930173,429.0,468.0
1797,1685096930173,476.0,418.0
1798,1685096930173,448.0,457.0
1799,1685096930173,461.0,408.0
1800,1685096930173,454.0,423.0
1801,1685096930173,488.0,464.0
1802,1685096930173,367.0,380.0
1803,1685096930173,500.0,446.0
1804,1685096930173,433.0,444.0
1805,1685096930173,384.0,411.0
1806,1685096930173,422.0,414.0
1807,1685096930173,412.0,438.0
1808,1685096930173,420.0,444.0
1809,1685096930173,371.0,430.0
1810,1685096930173,469.0,464.0
1811,1685096930173,403.0,460.0
1812,1685096930173,470.0,433.0
1813,1685096930173,434.0,467.0
1814,1685096930173,475.0,415.0
1815,1685096930173,470.0,462.0
1816,1685096930173,458.0,423.0
1817,1685096930173,439.0,398.0
1818,1685096930173,521.0,475.0
1819,1685096930173,370.0,382.0
1820,1685096930173,474.0,432.0
1821,1685096930173,466.0,449.0
1822,1685096930173,395.0,421.0
1823,1685096930173,397.0,407.0
1824,1685096930173,400.0,436.0
1825,1685096930173,444.0,454.0
1826,1685096930173,364.0,443.0
1827,1685096930173,480.0,452.0
1828,1685096930173,426.0,479.0
1829,1685096930173,474.0,421.0
1830,1685096930173,448.0,464.0
1831,1685096930173,474.0,411.0
1832,1685096930173,474.0,448.0
1833,1685096930173,474.0,437.0
1834,1685096930173,397.0,381.0
1835,1685096930173,519.0,463.0
1836,1685096930173,382.0,411.0
1837,1685096930173,402.0,404.0
1838,1685096930173,449.0,433.0
1839,1685096930173,404.0,436.0
1840,1685096930173,390.0,419.0
1841,1685096930173,380.0,432.0
1842,1685096930173,469.0,467.0
1843,1685096930173,396.0,456.0
1844,1685096930173,482.0,448.0
1845,1685096930173,431.0,467.0
1846,1685096930173,475.0,423.0
1847,1685096930173,453.0,460.0
1848,1685096930173,457.0,408.0
1849,1685096930173,461.0,429.0
1850,1685096930173,476.0,458.0
1851,1685096930173,361.0,376.0
1852,1685096930173,501.0,452.0
1853,1685096930173,420.0,431.0
1854,1685096930173,384.0,409.0
1855,1685096930173,425.0,417.0
1856,1685096930173,419.0,440.0
1857,1685096930173,420.0,444.0
1858,1685096930173,367.0,422.0
1859,1685096930173,483.0,463.0
1860,1685096930173,407.0,463.0
1861,1685096930173,466.0,418.0
1862,1685096930173,433.0,468.0
1863,1685096930173,465.0,407.0
1864,1685096930173,453.0,447.0
1865,1685096930173,453.0,425.0
1866,1685096930173,432.0,403.0
1867,1685096930173,509.0,475.0
1868,1685096930173,370.0,384.0
1869,1685096930173,471.0,438.0
1870,1685096930173,468.0,451.0
1871,1685096930173,395.0,431.0
1872,1685096930173,395.0,401.0
1873,1685096930173,404.0,434.0
1874,1685096930173,443.0,453.0
1875,1685096930173,366.0,436.0
1876,1685096930173,473.0,445.0
1877,1685096930173,413.0,472.0
1878,1685096930173,466.0,420.0
1879,1685096930173,443.0,470.0
1880,1685096930173,479.0,419.0
1881,1685096930173,470.0,446.0
1882,1685096930173,473.0,437.0
1883,1685096930173,410.0,393.0
1884,1685096930173,523.0,465.0
1885,1685096930173,382.0,409.0
1886,1685096930173,411.0,406.0
1887,1685096930173,454.0,433.0
1888,1685096930173,404.0,437.0
1889,1685096930173,381.0,412.0
1890,1685096930173,371.0,422.0
1891,1685096930173,465.0,468.0
1892,1685096930173,388.0,453.0
1893,1685096930173,484.0,450.0
1894,1685096930173,429.0,471.0
1895,1685096930173,481.0,420.0
1896,1685096930173,462.0,460.0
1897,1685096930173,468.0,414.0
1898,1685096930173,462.0,427.0
1899,1685096930173,475.0,445.0
1900,1685096930173,372.0,377.0
1901,1685096930173,499.0,452.0
1902,1685096930173,414.0,424.0
1903,1685096930173,376.0,402.0
1904,1685096930173,427.0,417.0
1905,1685096930173,407.0,445.0
1906,1685096930173,409.0,439.0
1907,1685096930173,377.0,430.0
1908,1685096930173,480.0,465.0
1909,1685096930173,409.0,459.0
1910,1685096930173,477.0,430.0
1911,1685096930173,438.0,466.0
1912,1685096930173,479.0,412.0
1913,1685096930173,449.0,449.0
1914,1685096930173,456.0,416.0
1915,1685096930173,431.0,405.0
1916,1685096930173,502.0,463.0
1917,1685096930173,358.0,384.0
1918,1685096930173,475.0,434.0
1919,1685096930173,475.0,460.0
1920,1685096930173,391.0,426.0
1921,1685096930173,402.0,414.0
1922,1685096930173,410.0,433.0
1923,1685096930173,441.0,455.0
1924,1685096930173,374.0,436.0
1925,1685096930173,478.0,454.0
1926,1685096930173,412.0,467.0
1927,1685096930173,465.0,424.0
1928,1685096930173,441.0,460.0
1929,1685096930173,466.0,415.0
1930,1685096930173,465.0,444.0
1931,1685096930173,468.0,434.0
1932,1685096930173,410.0,393.0
1933,1685096930173,521.0,468.0
1934,1685096930173,391.0,411.0
1935,1685096930173,422.0,412.0
1936,1685096930173,462.0,442.0
1937,1685096930173,406.0,438.0
1938,1685096930173,388.0,414.0
1939,1685096930173,374.0,423.0
1940,1685096930173,461.0,468.0
1941,1685096930173,379.0,446.0
1942,1685096930173,479.0,450.0
1943,1685096930173,421.0,467.0
1944,1685096930173,478.0,422.0
1945,1685096930173,448.0,464.0
1946,1685096930173,477.0,420.0
1947,1685096930173,468.0,424.0
1948,1685096930173,480.0,444.0
1949,1685096930173,381.0,376.0
1950,1685096930173,512.0,455.0
1951,1685096930173,419.0,430.0
1952,1685096930173,372.0,399.0
1953,1685096930173,422.0,412.0
1954,1685096930173,410.0,442.0
1955,1685096930173,406.0,431.0
1956,1685096930173,361.0,432.0
1957,1685096930173,477.0,461.0
1958,1685096930173,400.0,462.0
1959,1685096930173,483.0,434.0
1960,1685096930173,441.0,464.0
1961,1685096930173,484.0,425.0
1962,1685096930173,464.0,455.0
1963,1685096930173,458.0,414.0
1964,1685096930173,440.0,409.0
1965,1685096930173,504.0,465.0
1966,1685096930173,364.0,380.0
1967,1685096930173,472.0,436.0
1968,1685096930173,450.0,450.0
1969,1685096930173,387.0,423.0
1970,1685096930173,398.0,404.0
1971,1685096930173,402.0,436.0
1972,1685096930173,449.0,462.0
1973,1685096930173,374.0,434.0
1974,1685096930173,486.0,461.0
1975,1685096930173,419.0,464.0
1976,1685096930173,472.0,426.0
1977,1685096930173,438.0,467.0
1978,1685096930173,470.0,409.0
1979,1685096930173,459.0,444.0
1980,1685096930173,457.0,430.0
1981,1685096930173,409.0,390.0
1982,1685096930173,519.0,473.0
1983,1685096930173,383.0,405.0
1984,1685096930173,428.0,414.0
1985,1685096930173,462.0,437.0
1986,1685096930173,402.0,447.0
1987,1685096930173,394.0,418.0
1988,1685096930173,383.0,430.0
1989,1685096930173,464.0,464.0
1990,1685096930173,381.0,448.0
1991,1685096930173,489.0,454.0
1992,1685096930173,428.0,468.0
1993,1685096930173,471.0,416.0
1994,1685096930173,447.0,459.0
1995,1685096930173,461.0,414.0
1996,1685096930173,465.0,438.0
1997,1685096930173,474.0,446.0
1998,1685096930173,383.0,368.0
1999,1685096930173,517.0,465.0
2000,1685096930173,424.0,433.0
2001,1685096930173,384.0,404.0
2002,1685096930173,426.0,417.0
2003,1685096930173,409.0,451.0
2004,1685096930173,404.0,422.0
2005,1685096930173,371.0,428.0
2006,1685096930173,466.0,459.0
2007,1685096930173,384.0,459.0
2008,1685096930173,470.0,433.0
2009,1685096930173,434.0,471.0
2010,1685096930173,488.0,426.0
2011,1685096930173,466.0,455.0
2012,1685096930173,463.0,415.0
2013,1685096930173,449.0,411.0
2014,1685096930173,509.0,471.0
2015,1685096930173,364.0,375.0
2016,1685096930173,477.0,434.0
2017,1685096930173,448.0,439.0
2018,1685096930173,381.0,423.0
2019,1685096930173,400.0,406.0
2020,1685096930173,394.0,436.0
2021,1685096930173,430.0,452.0
2022,1685096930173,359.0,434.0
2023,1685096930173,482.0,460.0
2024,1685096930173,421.0,471.0
2025,1685096930173,475.0,430.0
2026,1685096930173,444.0,469.0
2027,1685096930173,485.0,411.0
2028,1685096930173,471.0,446.0
2029,1685096930173,464.0,428.0
2030,1685096930173,418.0,392.0
2031,1685096930173,510.0,461.0
2032,1685096930173,376.0,402.0
2033,1685096930173,427.0,414.0
2034,1685096930173,454.0,446.0
2035,1685096930173,393.0,436.0
2036,1685096930173,399.0,416.0
2037,1685096930173,388.0,435.0
2038,1685096930173,466.0,468.0
2039,1685096930173,376.0,438.0
2040,1685096930173,496.0,456.0
2041,1685096930173,432.0,469.0
2042,1685096930173,476.0,424.0
2043,1685096930173,447.0,457.0
2044,1685096930173,461.0,411.0
2045,1685096930173,469.0,437.0
2046,1685096930173,468.0,444.0
2047,1685096930173,379.0,374.0
2048,1685096930173,519.0,461.0
2049,1685096930173,404.0,424.0
2050,1685096930173,389.0,405.0
2051,1685096930173,438.0,417.0
2052,1685096930173,411.0,443.0
2053,1685096930173,412.0,432.0
2054,1685096930173,369.0,426.0
2055,1685096930173,477.0,468.0
2056,1685096930173,392.0,457.0
2057,1685096930173,466.0,433.0
2058,1685096930173,429.0,460.0
2059,1685096930173,481.0,419.0
2060,1685096930173,452.0,457.0
2061,1685096930173,461.0,408.0
2062,1685096930173,446.0,414.0
2063,1685096930173,503.0,459.0
2064,1685096930173,366.0,379.0
2065,1685096930173,488.0,447.0
2066,1685096930173,450.0,448.0
2067,1685096930173,380.0,421.0
2068,1685096930173,404.0,409.0
2069,1685096930173,401.0,447.0
2070,1685096930173,424.0,441.0
2071,1685096930173,356.0,428.0
2072,1685096930173,476.0,464.0
2073,1685096930173,412.0,467.0
2074,1685096930173,474.0,435.0
2075,1685096930173,443.0,469.0
2076,1685096930173,482.0,414.0
2077,1685096930173,470.0,450.0
2078,1685096930173,463.0,421.0
2079,1685096930173,427.0,395.0
2080,1685096930173,517.0,472.0
2081,1685096930173,376.0,398.0
2082,1685096930173,435.0,430.0
2083,1685096930173,460.0,442.0
2084,1685096930173,392.0,436.0
2085,1685096930173,386.0,408.0
2086,1685096930173,387.0,433.0
2087,1685096930173,460.0,466.0
2088,1685096930173,368.0,436.0
2089,1685096930173,492.0,457.0
2090,1685096930173,431.0,467.0
2091,1685096930173,476.0,422.0
2092,1685096930173,457.0,472.0
2093,1685096930173,471.0,406.0
2094,1685096930173,474.0,436.0
2095,1685096930173,471.0,442.0
2096,1685096930173,386.0,378.0
2097,1685096930173,516.0,464.0
2098,1685096930173,390.0,412.0
2099,1685096930173,391.0,410.0
2100,1685096930173,437.0,422.0
2101,1685096930173,402.0,450.0
2102,1685096930173,402.0,426.0
2103,1685096930173,370.0,423.0
2104,1685096930173,483.0,476.0
2105,1685096930173,396.0,455.0
2106,1685096930173,475.0,438.0
2107,1685096930173,435.0,466.0
2108,1685096930173,475.0,412.0
2109,1685096930173,457.0,459.0
2110,1685096930173,461.0,413.0
2111,1685096930173,449.0,414.0
2112,1685096930173,494.0,456.0
2113,1685096930173,368.0,385.0
2114,1685096930173,484.0,436.0
2115,1685096930173,432.0,441.0
2116,1685096930173,371.0,420.0
2117,1685096930173,412.0,406.0
2118,1685096930173,405.0,451.0
2119,1685096930173,434.0,448.0
2120,1685096930173,366.0,433.0
2121,1685096930173,490.0,463.0
2122,1685096930173,410.0,465.0
2123,1685096930173,477.0,430.0
2124,1685096930173,438.0,462.0
2125,1685096930173,474.0,412.0
2126,1685096930173,466.0,452.0
2127,1685096930173,455.0,422.0
2128,1685096930173,432.0,397.0
2129,1685096930173,511.0,467.0
2130,1685096930185,371.0,398.0
2131,1685096930185,451.0,430.0
2132,1685096930185,470.0,453.0
2133,1685096930185,390.0,428.0
2134,1685096930185,404.0,413.0
2135,1685096930185,388.0,435.0
2136,1685096930185,448.0,458.0
2137,1685096930185,371.0,443.0
2138,1685096930185,481.0,443.0
2139,1685096930185,425.0,470.0
2140,1685096930185,470.0,420.0
2141,1685096930185,453.0,468.0
2142,1685096930185,468.0,415.0
2143,1685096930185,473.0,440.0
2144,1685096930185,481.0,445.0
2145,1685096930185,393.0,380.0
2146,1685096930185,526.0,472.0
2147,1685096930185,391.0,418.0
2148,1685096930185,397.0,410.0
2149,1685096930185,444.0,431.0
2150,1685096930185,394.0,448.0
2151,1685096930185,384.0,414.0
2152,1685096930185,362.0,427.0
2153,1685096930185,466.0,464.0
2154,1685096930185,394.0,458.0
2155,1685096930185,480.0,441.0
2156,1685096930186,440.0,467.0
2157,1685096930186,492.0,424.0
2158,1685096930186,471.0,464.0
2159,1685096930186,467.0,411.0
2160,1685096930186,461.0,423.0
2161,1685096930186,488.0,449.0
2162,1685096930186,364.0,365.0
2163,1685096930186,490.0,447.0
2164,1685096930186,423.0,437.0
2165,1685096930186,366.0,404.0
2166,1685096930186,407.0,407.0
2167,1685096930186,401.0,450.0
2168,1685096930186,420.0,440.0
2169,1685096930186,367.0,434.0
2170,1685096930186,484.0,469.0
2171,1685096930186,413.0,464.0
2172,1685096930186,483.0,430.0
2173,1685096930186,447.0,472.0
2174,1685096930186,473.0,409.0
2175,1685096930186,464.0,453.0
2176,1685096930186,455.0,416.0
2177,1685096930186,425.0,392.0
2178,1685096930186,506.0,474.0
2179,1685096930186,359.0,388.0
2180,1685096930186,456.0,433.0
2181,1685096930186,471.0,453.0
2182,1685096930186,394.0,435.0
2183,1685096930186,399.0,416.0
2184,1685096930186,393.0,429.0
2185,1685096930186,458.0,465.0
2186,1685096930186,374.0,443.0
2187,1685096930186,480.0,447.0
2188,1685096930186,427.0,470.0
2189,1685096930186,466.0,408.0
2190,1685096930186,438.0,466.0
2191,1685096930186,469.0,404.0
2192,1685096930186,464.0,443.0
2193,1685096930186,478.0,438.0
2194,1685096930186,397.0,378.0
2195,1685096930186,521.0,469.0
2196,1685096930186,395.0,409.0
2197,1685096930186,408.0,415.0
2198,1685096930186,457.0,431.0
2199,1685096930186,401.0,450.0
2200,1685096930186,390.0,416.0
2201,1685096930186,356.0,432.0
2202,1685096930186,459.0,456.0
2203,1685096930186,381.0,456.0
2204,1685096930186,479.0,448.0
2205,1685096930186,427.0,469.0
2206,1685096930186,481.0,426.0
2207,1685096930186,464.0,464.0
2208,1685096930186,477.0,414.0
2209,1685096930186,468.0,424.0
2210,1685096930186,488.0,450.0
2211,1685096930186,382.0,372.0
2212,1685096930186,503.0,462.0
2213,1685096930186,419.0,429.0
2214,1685096930186,366.0,394.0
2215,1685096930186,417.0,412.0
2216,1685096930186,388.0,440.0
2217,1685096930186,406.0,440.0
2218,1685096930186,355.0,427.0
2219,1685096930186,482.0,461.0
2220,1685096930186,406.0,464.0
2221,1685096930186,478.0,430.0
2222,1685096930186,460.0,473.0
2223,1685096930186,487.0,420.0
2224,1685096930186,472.0,456.0
2225,1685096930186,462.0,414.0
2226,1685096930186,439.0,399.0
2227,1685096930186,509.0,462.0
2228,1685096930186,360.0,375.0
2229,1685096930186,467.0,440.0
2230,1685096930186,461.0,448.0
2231,1685096930186,384.0,429.0
2232,1685096930186,393.0,409.0
2233,1685096930186,400.0,439.0
2234,1685096930186,448.0,458.0
2235,1685096930186,369.0,438.0
2236,1685096930186,487.0,454.0
2237,1685096930186,425.0,470.0
2238,1685096930186,474.0,424.0
2239,1685096930186,445.0,465.0
2240,1685096930186,473.0,412.0
2241,1685096930186,464.0,440.0
2242,1685096930186,467.0,432.0
2243,1685096930186,400.0,380.0
2244,1685096930186,513.0,466.0
2245,1685096930186,382.0,408.0
2246,1685096930186,415.0,409.0
2247,1685096930186,465.0,438.0
2248,1685096930186,399.0,447.0
2249,1685096930186,402.0,418.0
2250,1685096930186,386.0,432.0
2251,1685096930186,474.0,469.0
2252,1685096930186,382.0,448.0
2253,1685096930186,493.0,451.0
2254,1685096930186,424.0,465.0
2255,1685096930186,468.0,420.0
2256,1685096930186,444.0,458.0
2257,1685096930186,466.0,413.0
2258,1685096930186,464.0,425.0
2259,1685096930186,478.0,447.0
2260,1685096930191,382.0,383.0
2261,1685096930191,509.0,458.0
2262,1685096930191,417.0,435.0
2263,1685096930191,374.0,409.0
2264,1685096930236,426.0,416.0
2265,1685096930236,401.0,446.0
2266,1685096930236,408.0,435.0
2267,1685096930258,353.0,426.0
2268,1685096930258,469.0,459.0
2269,1685096930258,397.0,464.0
2270,1685096930258,470.0,429.0
2271,1685096930292,444.0,471.0
2272,1685096930292,487.0,423.0
2273,1685096930292,459.0,453.0
2274,1685096930324,466.0,417.0
2275,1685096930324,447.0,410.0
2276,1685096930324,505.0,461.0
2277,1685096930324,373.0,382.0
2278,1685096930357,471.0,435.0
2279,1685096930357,452.0,444.0
2280,1685096930357,369.0,419.0
2281,1685096930386,385.0,406.0
2282,1685096930386,388.0,432.0
2283,1685096930386,438.0,448.0
2284,1685096930386,357.0,439.0
2285,1685096930418,490.0,463.0
2286,1685096930418,419.0,469.0
2287,1685096930418,479.0,431.0
2288,1685096930455,452.0,465.0
2289,1685096930455,486.0,414.0
2290,1685096930455,480.0,449.0
2291,1685096930455,470.0,424.0
2292,1685096930481,415.0,388.0
2293,1685096930481,509.0,463.0
2294,1685096930481,374.0,393.0
2295,1685096930481,416.0,418.0
2296,1685096930525,460.0,438.0
2297,1685096930525,399.0,443.0
2298,1685096930525,393.0,417.0
2299,1685096930557,381.0,436.0
2300,1685096930557,470.0,461.0
2301,1685096930557,376.0,446.0
2302,1685096930557,497.0,453.0
2303,1685096930593,438.0,468.0
2304,1685096930593,475.0,422.0
2305,1685096930593,447.0,448.0
2306,1685096930625,462.0,408.0
2307,1685096930625,464.0,428.0
2308,1685096930625,473.0,446.0
2309,1685096930625,377.0,369.0
2310,1685096930659,508.0,463.0
2311,1685096930659,416.0,433.0
2312,1685096930659,382.0,402.0
2313,1685096930688,437.0,427.0
2314,1685096930688,403.0,442.0
2315,1685096930688,411.0,434.0
2316,1685096930688,363.0,426.0
2317,1685096930719,485.0,468.0
2318,1685096930719,391.0,459.0
2319,1685096930719,467.0,431.0
2320,1685096930756,432.0,463.0
2321,1685096930756,478.0,417.0
2322,1685096930756,456.0,453.0
2323,1685096930756,462.0,417.0
2324,1685096930782,450.0,413.0
2325,1685096930782,511.0,466.0
2326,1685096930782,371.0,386.0
2327,1685096930782,483.0,437.0
2328,1685096930827,455.0,451.0
2329,1685096930827,369.0,415.0
2330,1685096930827,400.0,407.0
2331,1685096930859,393.0,444.0
2332,1685096930859,424.0,448.0
2333,1685096930859,361.0,427.0
2334,1685096930859,483.0,464.0
2335,1685096930894,413.0,463.0
2336,1685096930894,481.0,437.0
2337,1685096930894,450.0,468.0
2338,1685096930925,486.0,416.0
2339,1685096930925,478.0,452.0
2340,1685096930925,469.0,417.0
2341,1685096930925,409.0,379.0
2342,1685096930959,510.0,466.0
2343,1685096930959,365.0,401.0
2344,1685096930959,428.0,422.0
2345,1685096930993,455.0,446.0
2346,1685096930993,384.0,437.0
2347,1685096930993,387.0,418.0
2348,1685096930993,380.0,429.0
2349,1685096931026,466.0,459.0
2350,1685096931026,375.0,441.0
2351,1685096931026,500.0,456.0
2352,1685096931060,444.0,475.0
2353,1685096931060,478.0,421.0
2354,1685096931060,457.0,462.0
2355,1685096931060,473.0,405.0
2356,1685096931094,475.0,438.0
2357,1685096931094,474.0,434.0
2358,1685096931094,386.0,374.0
2359,1685096931094,510.0,461.0
2360,1685096931130,395.0,418.0
2361,1685096931130,390.0,412.0
2362,1685096931130,440.0,430.0
2363,1685096931161,400.0,447.0
2364,1685096931161,406.0,425.0
2365,1685096931161,366.0,431.0
2366,1685096931161,485.0,472.0
2367,1685096931194,396.0,455.0
2368,1685096931194,478.0,444.0
2369,1685096931194,434.0,455.0
2370,1685096931227,471.0,414.0
2371,1685096931227,457.0,458.0
2372,1685096931227,462.0,407.0
2373,1685096931227,455.0,416.0
2374,1685096931260,500.0,455.0
2375,1685096931260,367.0,378.0
2376,1685096931260,494.0,455.0
2377,1685096931290,442.0,442.0
2378,1685096931290,378.0,412.0
2379,1685096931290,414.0,413.0
2380,1685096931290,400.0,439.0
2381,1685096931320,427.0,451.0
2382,1685096931320,360.0,430.0
2383,1685096931320,478.0,463.0
2384,1685096931357,412.0,462.0
2385,1685096931357,469.0,426.0
2386,1685096931357,440.0,465.0
2387,1685096931357,482.0,415.0
2388,1685096931384,478.0,454.0
2389,1685096931384,462.0,417.0
2390,1685096931384,433.0,396.0
2391,1685096931384,514.0,469.0
2392,1685096931427,371.0,396.0
2393,1685096931427,458.0,427.0
2394,1685096931427,464.0,450.0
2395,1685096931459,393.0,431.0
2396,1685096931459,395.0,407.0
2397,1685096931459,393.0,437.0
2398,1685096931459,452.0,464.0
2399,1685096931495,363.0,433.0
2400,1685096931495,475.0,462.0
2401,1685096931495,430.0,473.0
2402,1685096931526,472.0,423.0
2403,1685096931526,451.0,468.0
2404,1685096931526,470.0,414.0
2405,1685096931526,471.0,442.0
2406,1685096931561,475.0,439.0
2407,1685096931561,394.0,373.0
2408,1685096931561,524.0,471.0
2409,1685096931589,391.0,416.0
2410,1685096931589,408.0,403.0
2411,1685096931589,446.0,428.0
2412,1685096931589,405.0,440.0
2413,1685096931622,394.0,418.0
2414,1685096931622,372.0,424.0
2415,1685096931622,464.0,474.0
2416,1685096931658,395.0,453.0
2417,1685096931658,475.0,447.0
2418,1685096931658,435.0,464.0
2419,1685096931658,474.0,428.0
2420,1685096931684,455.0,458.0
2421,1685096931684,463.0,415.0
2422,1685096931684,461.0,424.0
2423,1685096931684,483.0,448.0
2424,1685096931730,379.0,384.0
2425,1685096931730,503.0,455.0
2426,1685096931730,415.0,430.0
2427,1685096931761,385.0,398.0
2428,1685096931761,415.0,412.0
2429,1685096931761,417.0,439.0
2430,1685096931761,416.0,440.0
2431,1685096931795,369.0,429.0
2432,1685096931795,472.0,462.0
2433,1685096931795,410.0,465.0
2434,1685096931827,471.0,427.0
2435,1685096931827,439.0,471.0
2436,1685096931827,479.0,413.0
2437,1685096931827,458.0,456.0
2438,1685096931859,453.0,419.0
2439,1685096931859,439.0,401.0
2440,1685096931859,504.0,467.0
2441,1685096931891,367.0,388.0
2442,1685096931891,474.0,434.0
2443,1685096931891,461.0,447.0
2444,1685096931891,401.0,423.0
2445,1685096931922,395.0,407.0
2446,1685096931922,418.0,434.0
2447,1685096931922,442.0,464.0
2448,1685096931958,373.0,438.0
2449,1685096931958,472.0,458.0
2450,1685096931958,419.0,461.0
2451,1685096931958,463.0,417.0
2452,1685096931986,435.0,462.0
2453,1685096931986,462.0,413.0
2454,1685096931986,467.0,445.0
2455,1685096931986,463.0,439.0
2456,1685096932029,407.0,386.0
2457,1685096932029,525.0,478.0
2458,1685096932029,390.0,410.0
2459,1685096932060,437.0,413.0
2460,1685096932060,457.0,432.0
2461,1685096932060,424.0,444.0
2462,1685096932060,401.0,418.0
2463,1685096932095,392.0,417.0
2464,1685096932095,463.0,463.0
2465,1685096932095,387.0,450.0
2466,1685096932127,479.0,452.0
2467,1685096932127,417.0,467.0
2468,1685096932127,471.0,419.0
2469,1685096932127,445.0,471.0
2470,1685096932158,466.0,416.0
2471,1685096932158,460.0,429.0
2472,1685096932158,472.0,456.0
2473,1685096932189,385.0,377.0
2474,1685096932189,511.0,461.0
2475,1685096932189,415.0,428.0
2476,1685096932189,388.0,398.0
2477,1685096932221,429.0,408.0
2478,1685096932221,427.0,442.0
2479,1685096932221,407.0,434.0
2480,1685096932258,384.0,427.0
2481,1685096932258,471.0,463.0
2482,1685096932258,399.0,467.0
2483,1685096932258,468.0,435.0
2484,1685096932284,431.0,474.0
2485,1685096932284,471.0,418.0
2486,1685096932284,455.0,458.0
2487,1685096932284,442.0,420.0
2488,1685096932330,440.0,405.0
2489,1685096932330,487.0,466.0
2490,1685096932330,367.0,383.0
2491,1685096932362,479.0,443.0
2492,1685096932362,453.0,443.0
2493,1685096932362,402.0,419.0
2494,1685096932362,403.0,400.0
2495,1685096932397,423.0,437.0
2496,1685096932397,442.0,459.0
2497,1685096932397,386.0,434.0
2498,1685096932429,475.0,465.0
2499,1685096932429,424.0,469.0
2500,1685096932429,463.0,428.0
2501,1685096932429,430.0,465.0
2502,1685096932460,456.0,410.0
2503,1685096932460,452.0,441.0
2504,1685096932460,442.0,438.0
2505,1685096932493,412.0,378.0
2506,1685096932493,505.0,475.0
2507,1685096932493,381.0,395.0
2508,1685096932493,436.0,415.0
2509,1685096932524,467.0,442.0
2510,1685096932524,422.0,436.0
2511,1685096932524,402.0,414.0
2512,1685096932558,405.0,430.0
2513,1685096932558,460.0,465.0
2514,1685096932558,393.0,448.0
2515,1685096932558,483.0,454.0
2516,1685096932587,427.0,472.0
2517,1685096932587,458.0,417.0
2518,1685096932587,441.0,468.0
2519,1685096932587,456.0,406.0
2520,1685096932632,459.0,434.0
2521,1685096932632,455.0,448.0
2522,1685096932632,394.0,378.0
2523,1685096932663,506.0,467.0
2524,1685096932663,414.0,423.0
2525,1685096932663,406.0,407.0
2526,1685096932663,433.0,413.0
2527,1685096932697,426.0,443.0
2528,1685096932697,409.0,424.0
2529,1685096932697,388.0,418.0
2530,1685096932729,469.0,463.0
2531,1685096932729,390.0,463.0
2532,1685096932729,463.0,438.0
2533,1685096932729,428.0,471.0
2534,1685096932760,473.0,421.0
2535,1685096932760,454.0,466.0
2536,1685096932760,448.0,418.0
2537,1685096932792,451.0,405.0
2538,1685096932792,488.0,480.0
2539,1685096932792,376.0,369.0
2540,1685096932792,498.0,448.0
2541,1685096932829,446.0,444.0
2542,1685096932829,399.0,413.0
2543,1685096932829,405.0,398.0
2544,1685096932858,424.0,438.0
2545,1685096932858,423.0,450.0
2546,1685096932858,379.0,422.0
2547,1685096932858,466.0,463.0
2548,1685096932897,417.0,478.0
2549,1685096932897,469.0,440.0
2550,1685096932897,437.0,474.0
2551,1685096932897,468.0,409.0
2552,1685096932932,460.0,456.0
2553,1685096932932,442.0,425.0
2554,1685096932932,433.0,389.0
2555,1685096932963,499.0,476.0
2556,1685096932963,373.0,391.0
2557,1685096932963,451.0,414.0
2558,1685096932963,454.0,442.0
2559,1685096932998,425.0,440.0
2560,1685096932998,395.0,403.0
2561,1685096932998,412.0,432.0
2562,1685096933030,459.0,467.0
2563,1685096933030,387.0,442.0
2564,1685096933030,481.0,463.0
2565,1685096933030,428.0,471.0
2566,1685096933062,459.0,423.0
2567,1685096933062,436.0,465.0
2568,1685096933062,454.0,407.0
2569,1685096933093,465.0,438.0
2570,1685096933093,455.0,447.0
2571,1685096933093,387.0,358.0
2572,1685096933093,502.0,475.0
2573,1685096933125,400.0,414.0
2574,1685096933125,417.0,409.0
2575,1685096933125,449.0,421.0
2576,1685096933159,433.0,445.0
2577,1685096933159,410.0,427.0
2578,1685096933159,387.0,424.0
2579,1685096933159,469.0,469.0
2580,1685096933189,402.0,452.0
2581,1685096933189,462.0,436.0
2582,1685096933189,417.0,464.0
2583,1685096933189,467.0,418.0
2584,1685096933232,441.0,466.0
2585,1685096933232,450.0,413.0
2586,1685096933232,451.0,417.0
2587,1685096933263,479.0,472.0
2588,1685096933263,378.0,371.0
2589,1685096933263,502.0,453.0
2590,1685096933263,441.0,438.0
2591,1685096933298,404.0,413.0
2592,1685096933298,416.0,404.0
2593,1685096933298,424.0,438.0
2594,1685096933330,417.0,442.0
2595,1685096933330,379.0,427.0
2596,1685096933330,462.0,471.0
2597,1685096933330,405.0,469.0
2598,1685096933362,459.0,431.0
2599,1685096933362,432.0,475.0
2600,1685096933362,475.0,421.0
2601,1685096933394,462.0,453.0
2602,1685096933394,454.0,427.0
2603,1685096933394,439.0,392.0
2604,1685096933394,503.0,477.0
2605,1685096933426,372.0,384.0
2606,1685096933426,467.0,429.0
2607,1685096933426,452.0,434.0
2608,1685096933460,411.0,427.0
2609,1685096933460,388.0,400.0
2610,1685096933460,412.0,431.0
2611,1685096933460,442.0,465.0
2612,1685096933489,380.0,439.0
2613,1685096933489,478.0,457.0
2614,1685096933489,429.0,482.0
2615,1685096933489,470.0,427.0
2616,1685096933532,439.0,466.0
2617,1685096933532,465.0,410.0
2618,1685096933532,464.0,446.0
2619,1685096933563,458.0,433.0
2620,1685096933563,396.0,368.0
2621,1685096933563,510.0,476.0
2622,1685096933563,375.0,403.0
2623,1685096933599,426.0,415.0
2624,1685096933599,445.0,425.0
2625,1685096933599,426.0,441.0
2626,1685096933632,398.0,422.0
2627,1685096933632,403.0,422.0
2628,1685096933632,466.0,475.0
2629,1685096933632,393.0,452.0
2630,1685096933666,473.0,442.0
2631,1685096933666,421.0,472.0
2632,1685096933666,466.0,413.0
2633,1685096933699,438.0,456.0
2634,1685096933699,443.0,405.0
2635,1685096933699,448.0,419.0
2636,1685096933699,469.0,465.0
2637,1685096933728,378.0,371.0
2638,1685096933728,506.0,460.0
2639,1685096933728,423.0,440.0
2640,1685096933766,403.0,413.0
2641,1685096933766,424.0,408.0
2642,1685096933766,424.0,441.0
2643,1685096933766,411.0,438.0
2644,1685096933799,381.0,419.0
2645,1685096933799,470.0,464.0
2646,1685096933799,395.0,458.0
2647,1685096933799,464.0,424.0
2648,1685096933832,426.0,481.0
2649,1685096933832,464.0,413.0
2650,1685096933832,460.0,461.0
2651,1685096933866,455.0,423.0
2652,1685096933866,447.0,404.0
2653,1685096933866,508.0,480.0
2654,1685096933866,374.0,382.0
2655,1685096933899,487.0,433.0
2656,1685096933899,453.0,441.0
2657,1685096933899,407.0,419.0
2658,1685096933931,398.0,401.0
2659,1685096933931,410.0,429.0
2660,1685096933931,436.0,459.0
2661,1685096933931,370.0,428.0
2662,1685096933966,465.0,453.0
2663,1685096933966,423.0,478.0
2664,1685096933966,471.0,425.0
2665,1685096933999,441.0,470.0
2666,1685096933999,476.0,406.0
2667,1685096933999,469.0,445.0
2668,1685096933999,463.0,442.0
2669,1685096934025,407.0,372.0
2670,1685096934025,516.0,475.0
2671,1685096934025,379.0,402.0
2672,1685096934061,433.0,414.0
2673,1685096934061,451.0,432.0
2674,1685096934061,414.0,437.0
2675,1685096934061,395.0,411.0
2676,1685096934100,384.0,421.0
2677,1685096934100,462.0,467.0
2678,1685096934100,389.0,454.0
2679,1685096934100,486.0,459.0
2680,1685096934133,424.0,473.0
2681,1685096934133,474.0,416.0
2682,1685096934133,446.0,467.0
2683,1685096934165,460.0,406.0
2684,1685096934165,463.0,437.0
2685,1685096934165,476.0,454.0
2686,1685096934165,380.0,373.0
2687,1685096934200,505.0,460.0
2688,1685096934200,402.0,423.0
2689,1685096934200,398.0,404.0
2690,1685096934231,428.0,414.0
2691,1685096934231,428.0,442.0
2692,1685096934231,411.0,433.0
2693,1685096934231,374.0,420.0
2694,1685096934263,477.0,475.0
2695,1685096934263,409.0,463.0
2696,1685096934263,465.0,434.0
2697,1685096934294,432.0,470.0
2698,1685096934294,471.0,407.0
2699,1685096934294,454.0,463.0
2700,1685096934294,452.0,420.0
2701,1685096934333,440.0,405.0
2702,1685096934333,497.0,472.0
2703,1685096934333,361.0,380.0
2704,1685096934366,493.0,445.0
2705,1685096934366,450.0,446.0
2706,1685096934366,396.0,417.0
2707,1685096934366,401.0,403.0
2708,1685096934401,413.0,431.0
2709,1685096934401,435.0,452.0
2710,1685096934401,374.0,428.0
2711,1685096934401,463.0,453.0
2712,1685096934434,414.0,468.0
2713,1685096934434,460.0,419.0
2714,1685096934434,435.0,473.0
2715,1685096934467,472.0,411.0
2716,1685096934467,462.0,451.0
2717,1685096934467,457.0,434.0
2718,1685096934467,421.0,393.0
2719,1685096934501,515.0,476.0
2720,1685096934501,384.0,405.0
2721,1685096934501,448.0,419.0
2722,1685096934533,462.0,441.0
2723,1685096934533,413.0,433.0
2724,1685096934533,389.0,403.0
2725,1685096934533,395.0,423.0
2726,1685096934564,455.0,463.0
2727,1685096934564,377.0,444.0
2728,1685096934564,477.0,450.0
2729,1685096934595,424.0,478.0
2730,1685096934595,463.0,420.0
2731,1685096934595,449.0,469.0
2732,1685096934595,472.0,418.0
2733,1685096934627,465.0,439.0
2734,1685096934627,469.0,448.0
2735,1685096934627,391.0,374.0
2736,1685096934662,519.0,471.0
2737,1685096934662,397.0,418.0
2738,1685096934662,401.0,405.0
2739,1685096934662,431.0,422.0
2740,1685096934691,421.0,439.0
2741,1685096934691,394.0,426.0
2742,1685096934691,378.0,420.0
2743,1685096934691,465.0,465.0
2744,1685096934735,399.0,459.0
2745,1685096934735,474.0,432.0
2746,1685096934735,434.0,471.0
2747,1685096934767,473.0,422.0
2748,1685096934767,456.0,459.0
2749,1685096934767,463.0,421.0
2750,1685096934767,453.0,413.0
2751,1685096934801,491.0,462.0
2752,1685096934801,363.0,369.0
2753,1685096934801,498.0,447.0
2754,1685096934833,436.0,444.0
2755,1685096934833,395.0,416.0
2756,1685096934833,406.0,404.0
2757,1685096934833,417.0,437.0
2758,1685096934868,422.0,451.0
2759,1685096934868,382.0,436.0
2760,1685096934868,472.0,465.0
2761,1685096934901,407.0,460.0
2762,1685096934901,467.0,424.0
2763,1685096934901,433.0,464.0
2764,1685096934901,457.0,403.0
2765,1685096934928,459.0,451.0
2766,1685096934928,456.0,429.0
2767,1685096934928,428.0,399.0
2768,1685096934968,514.0,475.0
2769,1685096934968,375.0,393.0
2770,1685096934968,470.0,427.0
2771,1685096934968,461.0,449.0
2772,1685096934991,415.0,435.0
2773,1685096934991,391.0,408.0
2774,1685096934991,403.0,425.0
2775,1685096934991,451.0,457.0
2776,1685096935036,373.0,438.0
2777,1685096935036,480.0,453.0
2778,1685096935036,422.0,472.0
2779,1685096935068,459.0,417.0
2780,1685096935068,440.0,469.0
2781,1685096935068,464.0,413.0
2782,1685096935068,465.0,443.0
2783,1685096935102,469.0,450.0
2784,1685096935102,402.0,380.0
2785,1685096935102,522.0,472.0
2786,1685096935134,394.0,417.0
2787,1685096935134,412.0,404.0
2788,1685096935134,437.0,420.0
2789,1685096935134,419.0,438.0
2790,1685096935166,386.0,413.0
2791,1685096935166,383.0,423.0
2792,1685096935166,457.0,463.0
2793,1685096935200,390.0,455.0
2794,1685096935200,468.0,442.0
2795,1685096935200,422.0,467.0
2796,1685096935200,477.0,428.0
2797,1685096935231,459.0,472.0
2798,1685096935231,465.0,414.0
2799,1685096935231,465.0,433.0
2800,1685096935269,486.0,448.0
2801,1685096935269,374.0,382.0
2802,1685096935269,506.0,455.0
2803,1685096935269,422.0,437.0
2804,1685096935293,398.0,409.0
2805,1685096935293,404.0,401.0
2806,1685096935293,418.0,435.0
2807,1685096935293,422.0,440.0
2808,1685096935336,369.0,423.0
2809,1685096935336,469.0,465.0
2810,1685096935336,401.0,462.0
2811,1685096935368,465.0,428.0
2812,1685096935368,438.0,476.0
2813,1685096935368,476.0,416.0
2814,1685096935368,466.0,457.0
2815,1685096935402,451.0,419.0
2816,1685096935402,446.0,402.0
2817,1685096935402,508.0,473.0
2818,1685096935436,362.0,385.0
2819,1685096935436,475.0,433.0
2820,1685096935436,457.0,442.0
2821,1685096935436,402.0,426.0
2822,1685096935466,398.0,410.0
2823,1685096935466,411.0,438.0
2824,1685096935466,441.0,458.0
2825,1685096935501,381.0,442.0
2826,1685096935501,479.0,457.0
2827,1685096935501,421.0,468.0
2828,1685096935503,461.0,417.0
2829,1685096935535,430.0,463.0
2830,1685096935535,466.0,411.0
2831,1685096935535,467.0,446.0
2832,1685096935569,457.0,437.0
2833,1685096935569,402.0,381.0
2834,1685096935569,523.0,471.0
2835,1685096935569,383.0,408.0
2836,1685096935594,433.0,413.0
2837,1685096935594,449.0,426.0
2838,1685096935594,427.0,443.0
2839,1685096935594,399.0,417.0
2840,1685096935637,402.0,427.0
2841,1685096935637,464.0,466.0
2842,1685096935637,388.0,446.0
2843,1685096935668,473.0,443.0
2844,1685096935668,416.0,464.0
2845,1685096935668,464.0,420.0
2846,1685096935668,445.0,463.0
2847,1685096935704,454.0,407.0
2848,1685096935704,465.0,432.0
2849,1685096935704,474.0,453.0
2850,1685096935735,386.0,379.0
2851,1685096935735,521.0,464.0
2852,1685096935735,420.0,429.0
2853,1685096935735,408.0,411.0
2854,1685096935770,422.0,410.0
2855,1685096935770,422.0,430.0
2856,1685096935770,406.0,434.0
2857,1685096935803,360.0,415.0
2858,1685096935803,465.0,461.0
2859,1685096935803,396.0,460.0
2860,1685096935803,461.0,426.0
2861,1685096935836,429.0,474.0
2862,1685096935836,479.0,419.0
2863,1685096935836,462.0,464.0
2864,1685096935869,456.0,420.0
2865,1685096935869,453.0,410.0
2866,1685096935869,510.0,480.0
2867,1685096935869,371.0,375.0
2868,1685096935904,487.0,433.0
2869,1685096935904,443.0,442.0
2870,1685096935904,398.0,422.0
2871,1685096935904,397.0,403.0
2872,1685096935938,406.0,434.0
2873,1685096935938,434.0,458.0
2874,1685096935938,374.0,436.0
2875,1685096935970,471.0,453.0
2876,1685096935970,419.0,471.0
2877,1685096935970,471.0,433.0
2878,1685096935970,438.0,466.0
2879,1685096936004,475.0,416.0
2880,1685096936004,469.0,456.0
2881,1685096936004,455.0,422.0
2882,1685096936037,416.0,391.0
2883,1685096936037,511.0,470.0
2884,1685096936037,371.0,393.0
2885,1685096936037,444.0,420.0
2886,1685096936070,450.0,434.0
2887,1685096936070,415.0,438.0
2888,1685096936070,399.0,416.0
2889,1685096936103,398.0,427.0
2890,1685096936103,468.0,468.0
2891,1685096936103,381.0,444.0
2892,1685096936103,480.0,443.0
2893,1685096936130,425.0,471.0
2894,1685096936130,464.0,414.0
2895,1685096936130,442.0,462.0
2896,1685096936164,452.0,416.0
2897,1685096936164,457.0,429.0
2898,1685096936164,466.0,453.0
2899,1685096936164,383.0,376.0
2900,1685096936193,516.0,464.0
2901,1685096936193,406.0,427.0
2902,1685096936193,407.0,411.0
2903,1685096936193,444.0,416.0
2904,1685096936238,422.0,443.0
2905,1685096936238,407.0,430.0
2906,1685096936238,371.0,422.0
2907,1685096936271,470.0,460.0
2908,1685096936271,393.0,459.0
2909,1685096936271,462.0,440.0
2910,1685096936271,421.0,462.0
2911,1685096936304,461.0,419.0
2912,1685096936304,448.0,460.0
2913,1685096936304,454.0,418.0
2914,1685096936336,458.0,417.0
2915,1685096936336,505.0,467.0
2916,1685096936336,368.0,383.0
2917,1685096936336,501.0,448.0
2918,1685096936370,440.0,442.0
2919,1685096936370,394.0,408.0
2920,1685096936370,406.0,405.0
2921,1685096936405,411.0,435.0
2922,1685096936405,417.0,439.0
2923,1685096936405,362.0,424.0
2924,1685096936405,467.0,455.0
2925,1685096936437,409.0,467.0
2926,1685096936437,464.0,426.0
2927,1685096936437,442.0,471.0
2928,1685096936465,478.0,422.0
2929,1685096936465,469.0,460.0
2930,1685096936465,463.0,429.0
2931,1685096936465,431.0,393.0
2932,1685096936493,518.0,469.0
2933,1685096936493,370.0,390.0
2934,1685096936493,455.0,424.0
2935,1685096936493,454.0,441.0
2936,1685096936539,399.0,428.0
2937,1685096936539,394.0,410.0
2938,1685096936539,397.0,420.0
2939,1685096936571,452.0,466.0
2940,1685096936571,378.0,444.0
2941,1685096936571,482.0,456.0
2942,1685096936571,428.0,471.0
2943,1685096936605,476.0,427.0
2944,1685096936605,446.0,468.0
2945,1685096936605,466.0,414.0
2946,1685096936636,466.0,443.0
2947,1685096936636,463.0,441.0
2948,1685096936636,384.0,377.0
2949,1685096936636,510.0,467.0
2950,1685096936672,389.0,415.0
2951,1685096936672,409.0,406.0
2952,1685096936672,448.0,423.0
2953,1685096936704,422.0,440.0
2954,1685096936704,407.0,426.0
2955,1685096936704,385.0,421.0
2956,1685096936704,469.0,466.0
2957,1685096936731,401.0,453.0
2958,1685096936731,472.0,439.0
2959,1685096936731,425.0,467.0
2960,1685096936772,466.0,417.0
2961,1685096936772,448.0,456.0
2962,1685096936772,454.0,412.0
2963,1685096936772,451.0,423.0
2964,1685096936804,483.0,465.0
2965,1685096936804,373.0,380.0
2966,1685096936804,507.0,455.0
2967,1685096936804,430.0,436.0
2968,1685096936839,391.0,409.0
2969,1685096936839,422.0,408.0
2970,1685096936839,416.0,438.0
2971,1685096936871,419.0,444.0
2972,1685096936871,371.0,425.0
2973,1685096936871,466.0,464.0
2974,1685096936871,392.0,460.0
2975,1685096936906,459.0,416.0
2976,1685096936906,434.0,473.0
2977,1685096936906,476.0,412.0
2978,1685096936938,468.0,460.0
2979,1685096936938,461.0,429.0
2980,1685096936938,441.0,400.0
2981,1685096936938,510.0,478.0
2982,1685096936972,369.0,384.0
2983,1685096936972,474.0,432.0
2984,1685096936972,462.0,452.0
2985,1685096937005,395.0,420.0
2986,1685096937005,397.0,400.0
2987,1685096937005,389.0,426.0
2988,1685096937005,437.0,449.0
2989,1685096937039,368.0,441.0
2990,1685096937039,473.0,450.0
2991,1685096937039,426.0,480.0
2992,1685096937067,469.0,435.0
2993,1685096937067,448.0,465.0
2994,1685096937067,480.0,413.0
2995,1685096937067,476.0,447.0
2996,1685096937106,464.0,441.0
2997,1685096937106,403.0,382.0
2998,1685096937106,522.0,471.0
2999,1685096937106,382.0,410.0
3000,1685096937145,422.0,411.0
3001,1685096937145,453.0,427.0
3002,1685096937145,412.0,442.0
3003,1685096937172,393.0,408.0
3004,1685096937172,391.0,428.0
3005,1685096937173,460.0,462.0
3006,1685096937173,386.0,450.0
3007,1685096937206,485.0,448.0
3008,1685096937206,430.0,471.0
3009,1685096937206,475.0,416.0
3010,1685096937241,447.0,464.0
3011,1685096937241,459.0,411.0
3012,1685096937241,464.0,430.0
3013,1685096937241,476.0,446.0
3014,1685096937272,378.0,371.0
3015,1685096937272,511.0,463.0
3016,1685096937272,416.0,424.0
3017,1685096937306,387.0,404.0
3018,1685096937306,427.0,408.0
3019,1685096937306,416.0,444.0
3020,1685096937306,409.0,435.0
3021,1685096937340,373.0,431.0
3022,1685096937340,475.0,462.0
3023,1685096937340,400.0,460.0
3024,1685096937366,467.0,427.0
3025,1685096937366,428.0,464.0
3026,1685096937366,472.0,416.0
3027,1685096937366,447.0,456.0
3028,1685096937395,452.0,416.0
3029,1685096937395,437.0,406.0
3030,1685096937395,505.0,473.0
3031,1685096937395,360.0,377.0
3032,1685096937442,488.0,449.0
3033,1685096937442,457.0,445.0
3034,1685096937442,391.0,420.0
3035,1685096937473,403.0,402.0
3036,1685096937473,405.0,435.0
3037,1685096937473,432.0,442.0
3038,1685096937473,368.0,440.0
3039,1685096937507,477.0,449.0
3040,1685096937507,413.0,473.0
3041,1685096937507,472.0,421.0
3042,1685096937539,427.0,467.0
3043,1685096937539,468.0,415.0
3044,1685096937539,471.0,453.0
3045,1685096937539,460.0,427.0
3046,1685096937571,426.0,400.0
3047,1685096937571,524.0,471.0
3048,1685096937571,378.0,400.0
3049,1685096937607,441.0,409.0
3050,1685096937607,461.0,442.0
3051,1685096937607,398.0,430.0
3052,1685096937607,393.0,409.0
3053,1685096937635,384.0,421.0
3054,1685096937635,451.0,462.0
3055,1685096937635,379.0,435.0
3056,1685096937674,485.0,459.0
3057,1685096937674,433.0,478.0
3058,1685096937674,478.0,430.0
3059,1685096937674,451.0,464.0
3060,1685096937706,471.0,416.0
3061,1685096937706,470.0,440.0
3062,1685096937706,468.0,447.0
3063,1685096937706,383.0,371.0
3064,1685096937742,513.0,462.0
3065,1685096937742,396.0,423.0
3066,1685096937742,396.0,400.0
3067,1685096937774,443.0,420.0
3068,1685096937774,412.0,433.0
3069,1685096937774,409.0,425.0
3070,1685096937774,383.0,427.0
3071,1685096937812,472.0,466.0
3072,1685096937812,397.0,456.0
3073,1685096937812,465.0,432.0
3074,1685096937840,432.0,470.0
3075,1685096937840,481.0,414.0
3076,1685096937840,449.0,456.0
3077,1685096937840,452.0,411.0
3078,1685096937868,451.0,418.0
3079,1685096937868,494.0,466.0
3080,1685096937868,361.0,374.0
3081,1685096937907,496.0,444.0
3082,1685096937907,439.0,449.0
3083,1685096937907,390.0,415.0
3084,1685096937907,416.0,407.0
3085,1685096937938,413.0,440.0
3086,1685096937938,425.0,442.0
3087,1685096937938,367.0,436.0
3088,1685096937974,478.0,453.0
3089,1685096937974,410.0,467.0
3090,1685096937974,464.0,421.0
3091,1685096937974,433.0,465.0
3092,1685096938003,470.0,416.0
3093,1685096938003,463.0,453.0
3094,1685096938003,459.0,424.0
3095,1685096938003,431.0,401.0
3096,1685096938042,513.0,476.0
3097,1685096938042,369.0,397.0
3098,1685096938042,461.0,428.0
3099,1685096938075,469.0,447.0
3100,1685096938075,395.0,430.0
3101,1685096938075,397.0,409.0
3102,1685096938075,393.0,439.0
3103,1685096938109,453.0,461.0
3104,1685096938109,365.0,439.0
3105,1685096938109,478.0,451.0
3106,1685096938141,423.0,472.0
3107,1685096938141,463.0,425.0
3108,1685096938141,448.0,467.0
3109,1685096938141,472.0,418.0
3110,1685096938175,472.0,451.0
3111,1685096938175,470.0,439.0
3112,1685096938175,397.0,374.0
3113,1685096938208,525.0,477.0
3114,1685096938208,389.0,412.0
3115,1685096938208,410.0,413.0
3116,1685096938208,445.0,429.0
3117,1685096938236,400.0,441.0
3118,1685096938236,397.0,421.0
3119,1685096938236,377.0,423.0
3120,1685096938275,461.0,461.0
3121,1685096938275,383.0,454.0
3122,1685096938275,476.0,444.0
3123,1685096938275,432.0,467.0
3124,1685096938308,476.0,420.0
3125,1685096938308,457.0,461.0
3126,1685096938308,462.0,412.0
3127,1685096938308,468.0,428.0
3128,1685096938342,484.0,463.0
3129,1685096938342,378.0,373.0
3130,1685096938342,507.0,461.0
3131,1685096938375,413.0,429.0
3132,1685096938375,379.0,405.0
3133,1685096938375,428.0,413.0
3134,1685096938375,412.0,436.0
3135,1685096938409,407.0,441.0
3136,1685096938409,360.0,421.0
3137,1685096938409,478.0,468.0
3138,1685096938441,407.0,472.0
3139,1685096938441,470.0,433.0
3140,1685096938441,439.0,465.0
3141,1685096938441,471.0,419.0
3142,1685096938473,463.0,460.0
3143,1685096938473,461.0,420.0
3144,1685096938473,442.0,396.0
3145,1685096938508,500.0,472.0
3146,1685096938508,363.0,377.0
3147,1685096938508,479.0,435.0
3148,1685096938508,456.0,446.0
3149,1685096938543,389.0,418.0
3150,1685096938543,408.0,406.0
3151,1685096938543,409.0,434.0
3152,1685096938568,441.0,452.0
3153,1685096938568,370.0,439.0
3154,1685096938568,478.0,456.0
3155,1685096938568,419.0,471.0
3156,1685096938600,469.0,429.0
3157,1685096938600,441.0,463.0
3158,1685096938600,472.0,414.0
3159,1685096938600,466.0,448.0
3160,1685096938643,460.0,435.0
3161,1685096938643,411.0,385.0
3162,1685096938643,523.0,477.0
3163,1685096938675,381.0,397.0
3164,1685096938675,439.0,420.0
3165,1685096938675,473.0,446.0
3166,1685096938675,407.0,435.0
3167,1685096938710,391.0,402.0
3168,1685096938710,412.0,447.0
3169,1685096938710,463.0,451.0
3170,1685096938742,374.0,449.0
3171,1685096938742,483.0,447.0
3172,1685096938742,420.0,473.0
3173,1685096938742,464.0,428.0
3174,1685096938776,452.0,461.0
3175,1685096938776,467.0,415.0
3176,1685096938776,469.0,430.0
3177,1685096938809,476.0,453.0
3178,1685096938809,390.0,382.0
3179,1685096938809,511.0,460.0
3180,1685096938809,408.0,424.0
3181,1685096938837,388.0,402.0
3182,1685096938837,436.0,413.0
3183,1685096938837,409.0,444.0
3184,1685096938876,391.0,424.0
3185,1685096938876,366.0,425.0
3186,1685096938876,466.0,461.0
3187,1685096938876,398.0,468.0
3188,1685096938909,470.0,435.0
3189,1685096938909,432.0,476.0
3190,1685096938909,480.0,417.0
3191,1685096938909,464.0,468.0
3192,1685096938947,464.0,417.0
3193,1685096938947,459.0,418.0
3194,1685096938947,495.0,462.0
3195,1685096938969,372.0,374.0
3196,1685096938969,489.0,441.0
3197,1685096938969,437.0,445.0
3198,1685096938969,374.0,410.0
3199,1685096939013,409.0,404.0
3200,1685096939013,415.0,441.0
3201,1685096939013,425.0,443.0
3202,1685096939030,373.0,433.0
3203,1685096939030,476.0,455.0
3204,1685096939030,411.0,470.0
3205,1685096939030,472.0,427.0
3206,1685096939076,437.0,466.0
3207,1685096939076,468.0,409.0
3208,1685096939076,458.0,455.0
3209,1685096939108,451.0,424.0
3210,1685096939108,425.0,396.0
3211,1685096939108,500.0,468.0
3212,1685096939108,367.0,386.0
3213,1685096939141,457.0,423.0
3214,1685096939141,470.0,448.0
3215,1685096939141,402.0,432.0
3216,1685096939171,398.0,414.0
3217,1685096939171,400.0,428.0
3218,1685096939171,459.0,459.0
3219,1685096939171,379.0,445.0
3220,1685096939211,483.0,452.0
3221,1685096939211,431.0,478.0
3222,1685096939211,460.0,415.0
3223,1685096939211,439.0,462.0
3224,1685096939245,463.0,412.0
3225,1685096939245,461.0,438.0
3226,1685096939245,469.0,444.0
3227,1685096939277,394.0,381.0
3228,1685096939277,521.0,475.0
3229,1685096939277,397.0,412.0
3230,1685096939277,413.0,410.0
3231,1685096939312,452.0,425.0
3232,1685096939312,414.0,441.0
3233,1685096939312,391.0,414.0
3234,1685096939344,384.0,432.0
3235,1685096939344,460.0,456.0
3236,1685096939344,386.0,444.0
3237,1685096939344,476.0,439.0
3238,1685096939377,423.0,463.0
3239,1685096939377,471.0,429.0
3240,1685096939377,456.0,462.0
3241,1685096939409,471.0,418.0
3242,1685096939409,462.0,437.0
3243,1685096939409,483.0,448.0
3244,1685096939409,382.0,383.0
3245,1685096939444,512.0,460.0
3246,1685096939444,423.0,430.0
3247,1685096939444,379.0,400.0
3248,1685096939477,414.0,407.0
3249,1685096939477,413.0,436.0
3250,1685096939477,403.0,436.0
3251,1685096939477,368.0,426.0
3252,1685096939510,470.0,466.0
3253,1685096939510,397.0,464.0
3254,1685096939510,472.0,435.0
3255,1685096939510,444.0,474.0
3256,1685096939544,484.0,431.0
3257,1685096939544,467.0,459.0
3258,1685096939544,469.0,426.0
3259,1685096939576,445.0,402.0
3260,1685096939576,508.0,465.0
3261,1685096939576,364.0,375.0
3262,1685096939576,474.0,431.0
3263,1685096939613,447.0,443.0
3264,1685096939613,390.0,418.0
3265,1685096939613,394.0,401.0
3266,1685096939643,403.0,438.0
3267,1685096939643,432.0,452.0
3268,1685096939643,371.0,430.0
3269,1685096939643,479.0,460.0
3270,1685096939675,419.0,475.0
3271,1685096939675,475.0,425.0
3272,1685096939675,434.0,459.0
3273,1685096939707,467.0,417.0
3274,1685096939707,462.0,446.0
3275,1685096939707,456.0,430.0
3276,1685096939707,419.0,389.0
3277,1685096939738,514.0,467.0
3278,1685096939738,372.0,395.0
3279,1685096939738,440.0,414.0
3280,1685096939771,465.0,447.0
3281,1685096939771,411.0,437.0
3282,1685096939771,402.0,415.0
3283,1685096939771,401.0,437.0
3284,1685096939801,455.0,466.0
3285,1685096939801,384.0,442.0
3286,1685096939801,487.0,453.0
3287,1685096939801,426.0,467.0
3288,1685096939846,462.0,416.0
3289,1685096939846,442.0,464.0
3290,1685096939846,460.0,413.0
3291,1685096939878,470.0,436.0
3292,1685096939878,469.0,450.0
3293,1685096939878,392.0,377.0
3294,1685096939878,523.0,473.0
3295,1685096939912,407.0,416.0
3296,1685096939912,406.0,406.0
3297,1685096939912,441.0,419.0
3298,1685096939943,418.0,436.0
3299,1685096939943,401.0,425.0
3300,1685096939943,368.0,418.0
3301,1685096939943,465.0,469.0
3302,1685096939975,391.0,451.0
3303,1685096939975,460.0,442.0
3304,1685096939975,430.0,469.0
3305,1685096940012,480.0,425.0
3306,1685096940012,460.0,459.0
3307,1685096940012,468.0,430.0
3308,1685096940013,459.0,423.0
3309,1685096940045,498.0,466.0
3310,1685096940045,380.0,376.0
3311,1685096940045,509.0,456.0
3312,1685096940071,429.0,437.0
3313,1685096940071,393.0,403.0
3314,1685096940071,400.0,403.0
3315,1685096940071,406.0,426.0
3316,1685096940101,402.0,441.0
3317,1685096940101,363.0,422.0
3318,1685096940101,474.0,465.0
3319,1685096940101,406.0,463.0
3320,1685096940146,471.0,436.0
3321,1685096940146,446.0,473.0
3322,1685096940146,483.0,417.0
3323,1685096940177,471.0,461.0
3324,1685096940177,464.0,418.0
3325,1685096940177,446.0,403.0
3326,1685096940177,510.0,477.0
3327,1685096940213,367.0,380.0
3328,1685096940213,468.0,435.0
3329,1685096940213,448.0,441.0
3330,1685096940245,404.0,429.0
3331,1685096940245,393.0,408.0
3332,1685096940245,409.0,434.0
3333,1685096940245,440.0,459.0
3334,1685096940277,378.0,432.0
3335,1685096940277,479.0,451.0
3336,1685096940277,425.0,470.0
3337,1685096940313,466.0,420.0
3338,1685096940313,436.0,467.0
3339,1685096940313,466.0,405.0
3340,1685096940313,463.0,452.0
3341,1685096940342,460.0,445.0
3342,1685096940342,408.0,377.0
3343,1685096940342,517.0,473.0
3344,1685096940374,382.0,412.0
3345,1685096940374,438.0,416.0
3346,1685096940374,456.0,432.0
3347,1685096940374,423.0,441.0
3348,1685096940405,398.0,414.0
3349,1685096940405,400.0,422.0
3350,1685096940405,457.0,463.0
3351,1685096940405,391.0,454.0
3352,1685096940447,466.0,444.0
3353,1685096940447,416.0,471.0
3354,1685096940447,462.0,413.0
3355,1685096940479,441.0,465.0
3356,1685096940479,455.0,407.0
3357,1685096940479,467.0,436.0
3358,1685096940479,475.0,455.0
3359,1685096940514,394.0,378.0
3360,1685096940514,517.0,461.0
3361,1685096940514,415.0,425.0
3362,1685096940545,401.0,398.0
3363,1685096940545,428.0,410.0
3364,1685096940545,425.0,436.0
3365,1685096940545,396.0,433.0
3366,1685096940578,376.0,419.0
3367,1685096940578,453.0,463.0
3368,1685096940578,400.0,467.0
3369,1685096940613,458.0,428.0
3370,1685096940613,429.0,478.0
3371,1685096940613,469.0,417.0
3372,1685096940613,457.0,469.0
3373,1685096940647,456.0,417.0
3374,1685096940647,451.0,404.0
3375,1685096940647,490.0,476.0
3376,1685096940672,381.0,370.0
3377,1685096940672,502.0,438.0
3378,1685096940672,431.0,437.0
3379,1685096940672,405.0,415.0
3380,1685096940704,399.0,400.0
3381,1685096940704,423.0,432.0
3382,1685096940704,421.0,454.0
3383,1685096940704,373.0,430.0
3384,1685096940747,458.0,458.0
3385,1685096940747,413.0,475.0
3386,1685096940747,457.0,426.0
3387,1685096940779,434.0,477.0
3388,1685096940779,468.0,411.0
3389,1685096940779,450.0,446.0
3390,1685096940779,449.0,426.0
3391,1685096940815,420.0,367.0
3392,1685096940815,500.0,472.0
3393,1685096940815,371.0,392.0
3394,1685096940847,470.0,426.0
3395,1685096940847,462.0,445.0
3396,1685096940847,426.0,435.0
3397,1685096940847,392.0,404.0
3398,1685096940878,418.0,436.0
3399,1685096940878,441.0,470.0
3400,1685096940878,387.0,447.0
3401,1685096940909,472.0,463.0
3402,1685096940909,423.0,475.0
3403,1685096940909,454.0,422.0
3404,1685096940909,432.0,465.0
3405,1685096940941,454.0,406.0
3406,1685096940941,460.0,439.0
3407,1685096940941,458.0,452.0
3408,1685096940981,401.0,368.0
3409,1685096940981,511.0,477.0
3410,1685096940981,392.0,411.0
3411,1685096940981,429.0,405.0
3412,1685096941003,443.0,430.0
3413,1685096941003,433.0,436.0
3414,1685096941003,392.0,424.0
3415,1685096941003,403.0,422.0
3416,1685096941049,452.0,464.0
3417,1685096941049,403.0,462.0
3418,1685096941049,463.0,436.0
3419,1685096941080,416.0,466.0
3420,1685096941080,456.0,411.0
3421,1685096941080,443.0,464.0
3422,1685096941080,444.0,415.0
3423,1685096941115,457.0,420.0
3424,1685096941115,472.0,460.0
3425,1685096941115,388.0,370.0
3426,1685096941148,513.0,460.0
3427,1685096941148,422.0,436.0
3428,1685096941148,419.0,407.0
3429,1685096941148,416.0,403.0
3430,1685096941181,446.0,438.0
3431,1685096941181,409.0,441.0
3432,1685096941181,391.0,419.0
3433,1685096941214,453.0,463.0
3434,1685096941214,401.0,467.0
3435,1685096941214,463.0,430.0
3436,1685096941214,423.0,479.0
3437,1685096941243,461.0,416.0
3438,1685096941243,452.0,457.0
3439,1685096941243,450.0,422.0
3440,1685096941281,450.0,398.0
3441,1685096941281,492.0,475.0
3442,1685096941281,374.0,373.0
3443,1685096941281,491.0,438.0
3444,1685096941314,447.0,440.0
3445,1685096941314,424.0,420.0
3446,1685096941314,396.0,398.0
3447,1685096941314,427.0,428.0
3448,1685096941349,423.0,451.0
3449,1685096941349,389.0,439.0
3450,1685096941349,460.0,462.0
3451,1685096941381,416.0,478.0
3452,1685096941381,459.0,433.0
3453,1685096941381,431.0,463.0
3454,1685096941381,465.0,413.0
3455,1685096941415,457.0,453.0
3456,1685096941415,450.0,425.0
3457,1685096941415,420.0,380.0
3458,1685096941446,501.0,470.0
3459,1685096941446,378.0,397.0
3460,1685096941446,449.0,408.0
3461,1685096941446,445.0,430.0
3462,1685096941478,434.0,441.0
3463,1685096941478,386.0,408.0
3464,1685096941478,413.0,434.0
3465,1685096941509,447.0,466.0
3466,1685096941509,402.0,452.0
3467,1685096941509,470.0,460.0
3468,1685096941509,424.0,470.0
3469,1685096941541,462.0,418.0
3470,1685096941541,431.0,465.0
3471,1685096941541,453.0,408.0
3472,1685096941575,463.0,437.0
3473,1685096941575,454.0,447.0
3474,1685096941575,397.0,363.0
3475,1685096941575,514.0,478.0
3476,1685096941604,399.0,418.0
3477,1685096941604,420.0,400.0
3478,1685096941604,431.0,420.0
3479,1685096941604,437.0,436.0
3480,1685096941649,401.0,436.0
3481,1685096941649,402.0,427.0
3482,1685096941649,464.0,467.0
3483,1685096941681,400.0,467.0
3484,1685096941681,460.0,429.0
3485,1685096941681,422.0,472.0
3486,1685096941681,465.0,419.0
3487,1685096941717,445.0,471.0
3488,1685096941717,445.0,411.0
3489,1685096941717,455.0,413.0
3490,1685096941749,486.0,470.0
3491,1685096941749,376.0,368.0
3492,1685096941749,502.0,447.0
3493,1685096941749,432.0,444.0
3494,1685096941781,416.0,421.0
3495,1685096941781,404.0,398.0
3496,1685096941781,432.0,435.0
3497,1685096941813,413.0,450.0
3498,1685096941813,382.0,428.0
3499,1685096941813,458.0,462.0
3500,1685096941813,407.0,471.0
3501,1685096941844,457.0,427.0
3502,1685096941844,425.0,478.0
3503,1685096941844,461.0,401.0
3504,1685096941876,461.0,457.0
3505,1685096941876,448.0,427.0
3506,1685096941876,438.0,390.0
3507,1685096941876,505.0,481.0
3508,1685096941909,372.0,388.0
3509,1685096941909,476.0,426.0
3510,1685096941909,453.0,438.0
3511,1685096941909,417.0,429.0
3512,1685096941950,392.0,396.0
3513,1685096941950,419.0,430.0
3514,1685096941950,438.0,466.0
3515,1685096941982,378.0,435.0
3516,1685096941982,474.0,465.0
3517,1685096941982,419.0,479.0
3518,1685096941982,469.0,427.0
3519,1685096942016,442.0,477.0
3520,1685096942016,466.0,407.0
3521,1685096942016,464.0,444.0
3522,1685096942049,461.0,437.0
3523,1685096942049,400.0,372.0
3524,1685096942049,513.0,475.0
3525,1685096942049,379.0,404.0
3526,1685096942079,435.0,409.0
3527,1685096942079,437.0,426.0
3528,1685096942079,428.0,439.0
3529,1685096942116,391.0,418.0
3530,1685096942116,399.0,424.0
3531,1685096942116,454.0,480.0
3532,1685096942116,394.0,456.0
3533,1685096942150,478.0,449.0
3534,1685096942150,423.0,479.0
3535,1685096942150,465.0,412.0
3536,1685096942183,442.0,466.0
3537,1685096942183,459.0,401.0
3538,1685096942183,461.0,429.0
3539,1685096942183,465.0,456.0
3540,1685096942216,380.0,366.0
3541,1685096942216,509.0,469.0
3542,1685096942216,405.0,423.0
3543,1685096942216,412.0,404.0
3544,1685096942250,427.0,409.0
3545,1685096942250,431.0,439.0
3546,1685096942250,403.0,443.0
3547,1685096942282,381.0,417.0
3548,1685096942282,466.0,464.0
3549,1685096942282,405.0,467.0
3550,1685096942282,460.0,423.0
3551,1685096942317,423.0,473.0
3552,1685096942317,468.0,406.0
3553,1685096942317,453.0,462.0
3554,1685096942350,446.0,416.0
3555,1685096942350,444.0,400.0
3556,1685096942350,495.0,476.0
3557,1685096942350,370.0,373.0
3558,1685096942380,506.0,451.0
3559,1685096942380,447.0,436.0
3560,1685096942380,413.0,422.0
3561,1685096942416,398.0,404.0
3562,1685096942416,426.0,435.0
3563,1685096942416,429.0,451.0
3564,1685096942416,371.0,425.0
3565,1685096942450,462.0,457.0
3566,1685096942450,409.0,471.0
3567,1685096942450,462.0,422.0
3568,1685096942476,435.0,476.0
3569,1685096942476,477.0,419.0
3570,1685096942476,468.0,456.0
3571,1685096942476,457.0,428.0
3572,1685096942507,429.0,395.0
3573,1685096942507,517.0,476.0
3574,1685096942507,376.0,392.0
3575,1685096942507,462.0,419.0
3576,1685096942551,461.0,436.0
3577,1685096942551,417.0,428.0
3578,1685096942551,383.0,404.0
3579,1685096942584,397.0,415.0
3580,1685096942584,442.0,463.0
3581,1685096942584,381.0,448.0
3582,1685096942584,479.0,461.0
3583,1685096942619,429.0,481.0
3584,1685096942619,465.0,418.0
3585,1685096942619,446.0,477.0
3586,1685096942650,466.0,411.0
3587,1685096942650,468.0,440.0
3588,1685096942650,468.0,445.0
3589,1685096942650,389.0,373.0
3590,1685096942682,511.0,462.0
3591,1685096942682,384.0,406.0
3592,1685096942682,410.0,408.0
3593,1685096942715,432.0,415.0
3594,1685096942715,426.0,449.0
3595,1685096942715,393.0,423.0
3596,1685096942715,391.0,423.0
3597,1685096942747,464.0,468.0
3598,1685096942747,406.0,463.0
3599,1685096942747,471.0,442.0
3600,1685096942785,423.0,470.0
3601,1685096942785,472.0,415.0
3602,1685096942785,445.0,464.0
3603,1685096942785,447.0,408.0
3604,1685096942809,449.0,418.0
3605,1685096942809,482.0,458.0
3606,1685096942809,365.0,371.0
3607,1685096942809,507.0,460.0
3608,1685096942852,423.0,439.0
3609,1685096942852,404.0,405.0
3610,1685096942852,418.0,416.0
3611,1685096942884,429.0,437.0
3612,1685096942884,421.0,452.0
3613,1685096942884,379.0,422.0
3614,1685096942884,474.0,467.0
3615,1685096942919,398.0,456.0
3616,1685096942919,459.0,422.0
3617,1685096942919,431.0,466.0
3618,1685096942951,470.0,411.0
3619,1685096942951,460.0,466.0
3620,1685096942951,451.0,417.0
3621,1685096942951,443.0,404.0
3622,1685096942982,510.0,479.0
3623,1685096942982,377.0,382.0
3624,1685096942982,496.0,442.0
3625,1685096943018,460.0,440.0
3626,1685096943018,412.0,424.0
3627,1685096943018,386.0,395.0
3628,1685096943018,407.0,425.0
3629,1685096943052,433.0,458.0
3630,1685096943052,365.0,435.0
3631,1685096943052,467.0,458.0
3632,1685096943085,413.0,479.0
3633,1685096943085,470.0,424.0
3634,1685096943085,446.0,481.0
3635,1685096943085,477.0,409.0
3636,1685096943108,466.0,450.0
3637,1685096943108,464.0,437.0
3638,1685096943108,421.0,376.0
3639,1685096943108,519.0,471.0
3640,1685096943152,374.0,403.0
3641,1685096943152,435.0,410.0
3642,1685096943152,442.0,429.0
3643,1685096943186,410.0,439.0
3644,1685096943186,382.0,405.0
3645,1685096943186,391.0,422.0
3646,1685096943186,455.0,468.0
3647,1685096943219,381.0,447.0
3648,1685096943219,488.0,456.0
3649,1685096943219,433.0,482.0
3650,1685096943251,474.0,418.0
3651,1685096943251,455.0,470.0
3652,1685096943251,461.0,404.0
3653,1685096943251,460.0,438.0
3654,1685096943282,466.0,449.0
3655,1685096943282,381.0,374.0
3656,1685096943282,512.0,468.0
3657,1685096943314,399.0,420.0
3658,1685096943314,402.0,410.0
3659,1685096943314,428.0,417.0
3660,1685096943314,428.0,443.0
3661,1685096943352,411.0,434.0
3662,1685096943352,381.0,422.0
3663,1685096943352,471.0,470.0
3664,1685096943385,398.0,463.0
3665,1685096943385,466.0,429.0
3666,1685096943385,423.0,474.0
3667,1685096943385,473.0,408.0
3668,1685096943407,444.0,460.0
3669,1685096943407,450.0,408.0
3670,1685096943407,446.0,416.0
3671,1685096943407,490.0,465.0
3672,1685096943454,368.0,375.0
3673,1685096943454,498.0,444.0
3674,1685096943454,435.0,428.0
3675,1685096943485,408.0,418.0
3676,1685096943485,404.0,402.0
3677,1685096943485,423.0,444.0
3678,1685096943485,428.0,450.0
3679,1685096943520,373.0,424.0
3680,1685096943520,474.0,464.0
3681,1685096943520,405.0,468.0
3682,1685096943553,461.0,423.0
3683,1685096943553,429.0,473.0
3684,1685096943553,472.0,419.0
3685,1685096943553,459.0,450.0
3686,1685096943583,457.0,426.0
3687,1685096943583,438.0,401.0
3688,1685096943583,518.0,482.0
3689,1685096943617,371.0,389.0
3690,1685096943617,471.0,429.0
3691,1685096943617,459.0,444.0
3692,1685096943617,409.0,428.0
3693,1685096943647,394.0,405.0
3694,1685096943647,402.0,423.0
3695,1685096943647,440.0,461.0
3696,1685096943680,369.0,440.0
3697,1685096943680,480.0,453.0
3698,1685096943680,433.0,488.0
3699,1685096943680,468.0,426.0
3700,1685096943710,441.0,473.0
3701,1685096943710,476.0,420.0
3702,1685096943710,471.0,442.0
3703,1685096943710,473.0,451.0
3704,1685096943754,397.0,373.0
3705,1685096943754,523.0,475.0
3706,1685096943754,382.0,411.0
3707,1685096943786,420.0,410.0
3708,1685096943786,442.0,431.0
3709,1685096943786,417.0,444.0
3710,1685096943786,387.0,410.0
3711,1685096943821,383.0,417.0
3712,1685096943821,461.0,468.0
3713,1685096943821,385.0,453.0
3714,1685096943852,472.0,453.0
3715,1685096943852,427.0,466.0
3716,1685096943852,483.0,425.0
3717,1685096943852,448.0,465.0
3718,1685096943884,464.0,409.0
3719,1685096943884,461.0,432.0
3720,1685096943884,481.0,455.0
3721,1685096943915,374.0,372.0
3722,1685096943915,497.0,452.0
3723,1685096943915,404.0,427.0
3724,1685096943915,394.0,411.0
3725,1685096943953,422.0,411.0
3726,1685096943953,420.0,442.0
3727,1685096943953,410.0,438.0
3728,1685096943979,378.0,421.0
3729,1685096943979,481.0,473.0
3730,1685096943979,407.0,462.0
3731,1685096943979,465.0,425.0
3732,1685096944011,430.0,476.0
3733,1685096944011,463.0,411.0
3734,1685096944011,454.0,462.0
3735,1685096944011,457.0,417.0
3736,1685096944054,436.0,406.0
3737,1685096944054,500.0,471.0
3738,1685096944054,364.0,376.0
3739,1685096944086,494.0,447.0
3740,1685096944086,454.0,442.0
3741,1685096944086,394.0,415.0
3742,1685096944086,406.0,411.0
3743,1685096944121,417.0,435.0
3744,1685096944121,434.0,463.0
3745,1685096944121,366.0,423.0
3746,1685096944153,471.0,460.0
3747,1685096944153,410.0,472.0
3748,1685096944153,469.0,423.0
3749,1685096944153,430.0,470.0
3750,1685096944184,466.0,413.0
3751,1685096944184,461.0,455.0
3752,1685096944184,461.0,435.0
3753,1685096944221,426.0,398.0
3754,1685096944221,523.0,475.0
3755,1685096944221,377.0,401.0
3756,1685096944221,453.0,418.0
3757,1685096944253,456.0,438.0
3758,1685096944253,417.0,434.0
3759,1685096944253,390.0,402.0
3760,1685096944288,388.0,420.0
3761,1685096944288,449.0,471.0
3762,1685096944288,375.0,440.0
3763,1685096944288,480.0,455.0
3764,1685096944314,425.0,477.0
3765,1685096944314,471.0,416.0
3766,1685096944314,449.0,473.0
3767,1685096944314,467.0,409.0
3768,1685096944356,475.0,442.0
3769,1685096944356,474.0,451.0
3770,1685096944356,390.0,374.0
3771,1685096944391,517.0,473.0
3772,1685096944391,390.0,415.0
3773,1685096944391,405.0,414.0
3774,1685096944391,442.0,422.0
3775,1685096944422,418.0,438.0
3776,1685096944422,391.0,418.0
3777,1685096944422,382.0,416.0
3778,1685096944453,469.0,470.0
3779,1685096944453,402.0,466.0
3780,1685096944453,475.0,437.0
