Sample Number (10000 samples per second),UNIX Timestamp (Milliseconds since 1970-01-01),C1 (),C2 ()
0,1685094925958,420.0,459.0
1,1685094925958,411.0,469.0
2,1685094925958,409.0,478.0
3,1685094925958,415.0,488.0
4,1685094925958,420.0,495.0
5,1685094925958,425.0,494.0
6,1685094925958,409.0,478.0
7,1685094925958,490.0,464.0
8,1685094925958,415.0,419.0
9,1685094925958,391.0,383.0
10,1685094925958,511.0,450.0
11,1685094925958,395.0,407.0
12,1685094925958,375.0,389.0
13,1685094925958,391.0,429.0
14,1685094925958,437.0,440.0
15,1685094925958,419.0,485.0
16,1685094925958,465.0,433.0
17,1685094925958,410.0,483.0
18,1685094925958,480.0,442.0
19,1685094925958,431.0,462.0
20,1685094925958,491.0,433.0
21,1685094925958,447.0,413.0
22,1685094925958,479.0,473.0
23,1685094925958,398.0,371.0
24,1685094925958,426.0,449.0
25,1685094925958,465.0,448.0
26,1685094925958,367.0,363.0
27,1685094925958,453.0,423.0
28,1685094925958,401.0,422.0
29,1685094925958,387.0,400.0
30,1685094925958,391.0,444.0
31,1685094925958,449.0,428.0
32,1685094925958,426.0,502.0
33,1685094925958,468.0,435.0
34,1685094925958,417.0,473.0
35,1685094925958,522.0,449.0
36,1685094925958,453.0,457.0
37,1685094925958,474.0,449.0
38,1685094925958,452.0,398.0
39,1685094925958,492.0,478.0
40,1685094925958,396.0,370.0
41,1685094925958,437.0,412.0
42,1685094925958,501.0,466.0
43,1685094925958,369.0,378.0
44,1685094925958,388.0,394.0
45,1685094925958,428.0,448.0
46,1685094925958,423.0,421.0
47,1685094925958,407.0,465.0
48,1685094925958,452.0,425.0
49,1685094925958,428.0,498.0
50,1685094925958,507.0,432.0
51,1685094925958,416.0,472.0
52,1685094925958,504.0,443.0
53,1685094925958,454.0,439.0
54,1685094925958,485.0,461.0
55,1685094925958,429.0,382.0
56,1685094925958,479.0,470.0
57,1685094925958,416.0,408.0
58,1685094925958,418.0,396.0
59,1685094925958,513.0,473.0
60,1685094925958,390.0,412.0
61,1685094925958,396.0,385.0
62,1685094925958,390.0,431.0
63,1685094925958,407.0,414.0
64,1685094925958,441.0,490.0
65,1685094925958,472.0,435.0
66,1685094925958,417.0,485.0
67,1685094925958,488.0,437.0
68,1685094925958,410.0,455.0
69,1685094925958,472.0,444.0
70,1685094925958,455.0,434.0
71,1685094925958,479.0,474.0
72,1685094925958,414.0,373.0
73,1685094925958,497.0,457.0
74,1685094925958,437.0,438.0
75,1685094925958,355.0,362.0
76,1685094925958,472.0,448.0
77,1685094925958,390.0,410.0
78,1685094925958,372.0,391.0
79,1685094925958,389.0,441.0
80,1685094925958,456.0,427.0
81,1685094925958,419.0,496.0
82,1685094925958,467.0,435.0
83,1685094925958,411.0,474.0
84,1685094925958,469.0,454.0
85,1685094925958,437.0,458.0
86,1685094925958,476.0,445.0
87,1685094925958,458.0,409.0
88,1685094925958,463.0,471.0
89,1685094925958,393.0,373.0
90,1685094925958,468.0,444.0
91,1685094925958,485.0,457.0
92,1685094925958,357.0,366.0
93,1685094925958,425.0,409.0
94,1685094925958,400.0,439.0
95,1685094925958,392.0,410.0
96,1685094925958,389.0,460.0
97,1685094925958,438.0,427.0
98,1685094925958,418.0,491.0
99,1685094925958,482.0,441.0
100,1685094925958,400.0,470.0
101,1685094925958,515.0,449.0
102,1685094925958,441.0,442.0
103,1685094925958,471.0,449.0
104,1685094925958,443.0,392.0
105,1685094925958,491.0,469.0
106,1685094925958,413.0,389.0
107,1685094925958,432.0,410.0
108,1685094925958,512.0,480.0
109,1685094925958,381.0,388.0
110,1685094925958,408.0,401.0
111,1685094925958,403.0,421.0
112,1685094925958,429.0,426.0
113,1685094925958,392.0,470.0
114,1685094925958,452.0,431.0
115,1685094925958,413.0,493.0
116,1685094925958,489.0,437.0
117,1685094925958,427.0,472.0
118,1685094925958,496.0,440.0
119,1685094925958,460.0,434.0
120,1685094925958,480.0,465.0
121,1685094925958,402.0,380.0
122,1685094925958,501.0,477.0
123,1685094925958,416.0,394.0
124,1685094925958,383.0,373.0
125,1685094925958,489.0,456.0
126,1685094925958,392.0,419.0
127,1685094925958,385.0,382.0
128,1685094925958,377.0,436.0
129,1685094925958,436.0,433.0
130,1685094925958,407.0,491.0
131,1685094925958,481.0,438.0
132,1685094925958,413.0,487.0
133,1685094925958,498.0,444.0
134,1685094925958,422.0,457.0
135,1685094925958,485.0,443.0
136,1685094925958,470.0,420.0
137,1685094925958,487.0,473.0
138,1685094925958,400.0,361.0
139,1685094925958,469.0,456.0
140,1685094925958,446.0,424.0
141,1685094925958,361.0,362.0
142,1685094925958,429.0,438.0
143,1685094925958,410.0,429.0
144,1685094925958,391.0,408.0
145,1685094925958,384.0,446.0
146,1685094925958,453.0,444.0
147,1685094925958,409.0,490.0
148,1685094925958,466.0,437.0
149,1685094925958,407.0,467.0
150,1685094925958,502.0,440.0
151,1685094925958,434.0,447.0
152,1685094925958,463.0,441.0
153,1685094925958,448.0,392.0
154,1685094925958,490.0,478.0
155,1685094925958,397.0,373.0
156,1685094925958,444.0,418.0
157,1685094925958,505.0,474.0
158,1685094925958,375.0,381.0
159,1685094925958,409.0,390.0
160,1685094925958,420.0,443.0
161,1685094925958,417.0,409.0
162,1685094925958,388.0,446.0
163,1685094925958,452.0,433.0
164,1685094925958,419.0,493.0
165,1685094925958,474.0,433.0
166,1685094925958,405.0,462.0
167,1685094925958,492.0,433.0
168,1685094925958,463.0,441.0
169,1685094925958,465.0,444.0
170,1685094925974,435.0,390.0
171,1685094925974,502.0,479.0
172,1685094925974,417.0,397.0
173,1685094925974,417.0,400.0
174,1685094925974,515.0,470.0
175,1685094925974,382.0,391.0
176,1685094925974,381.0,393.0
177,1685094925974,407.0,425.0
178,1685094925974,427.0,437.0
179,1685094925974,377.0,474.0
180,1685094925974,475.0,430.0
181,1685094925974,414.0,491.0
182,1685094925974,489.0,438.0
183,1685094925974,422.0,464.0
184,1685094925974,495.0,446.0
185,1685094925974,459.0,428.0
186,1685094925974,481.0,466.0
187,1685094925974,413.0,370.0
188,1685094925974,482.0,457.0
189,1685094925974,417.0,428.0
190,1685094925974,366.0,361.0
191,1685094925974,466.0,442.0
192,1685094925974,404.0,417.0
193,1685094925974,380.0,387.0
194,1685094925974,367.0,428.0
195,1685094925974,450.0,441.0
196,1685094925974,406.0,489.0
197,1685094925974,444.0,434.0
198,1685094925974,419.0,492.0
199,1685094925974,511.0,437.0
200,1685094925974,441.0,457.0
201,1685094925974,465.0,431.0
202,1685094925974,451.0,412.0
203,1685094925974,490.0,469.0
204,1685094925974,401.0,368.0
205,1685094925974,454.0,430.0
206,1685094925974,471.0,450.0
207,1685094925974,351.0,366.0
208,1685094925974,433.0,418.0
209,1685094925974,419.0,430.0
210,1685094925974,402.0,408.0
211,1685094925974,375.0,445.0
212,1685094925974,444.0,425.0
213,1685094925974,431.0,505.0
214,1685094925974,469.0,423.0
215,1685094925974,405.0,472.0
216,1685094925974,495.0,449.0
217,1685094925974,445.0,452.0
218,1685094925974,479.0,448.0
219,1685094925974,450.0,387.0
220,1685094925974,490.0,476.0
221,1685094925974,410.0,391.0
222,1685094925974,443.0,407.0
223,1685094925974,494.0,486.0
224,1685094925974,365.0,381.0
225,1685094925974,400.0,390.0
226,1685094925974,388.0,430.0
227,1685094925974,405.0,418.0
228,1685094925974,379.0,472.0
229,1685094925974,449.0,427.0
230,1685094925974,411.0,498.0
231,1685094925974,484.0,438.0
232,1685094925974,414.0,468.0
233,1685094925974,501.0,442.0
234,1685094925974,471.0,442.0
235,1685094925974,500.0,458.0
236,1685094925974,427.0,378.0
237,1685094925974,489.0,469.0
238,1685094925974,426.0,409.0
239,1685094925974,407.0,380.0
240,1685094925974,493.0,462.0
241,1685094925974,378.0,405.0
242,1685094925974,373.0,377.0
243,1685094925974,392.0,438.0
244,1685094925974,439.0,433.0
245,1685094925974,415.0,488.0
246,1685094925974,471.0,441.0
247,1685094925974,417.0,486.0
248,1685094925974,481.0,428.0
249,1685094925974,440.0,456.0
250,1685094925974,490.0,450.0
251,1685094925974,462.0,430.0
252,1685094925974,482.0,460.0
253,1685094925974,406.0,370.0
254,1685094925974,468.0,440.0
255,1685094925974,449.0,438.0
256,1685094925974,338.0,359.0
257,1685094925974,467.0,444.0
258,1685094925974,394.0,414.0
259,1685094925974,392.0,403.0
260,1685094925974,385.0,449.0
261,1685094925974,446.0,428.0
262,1685094925974,423.0,507.0
263,1685094925974,471.0,429.0
264,1685094925974,414.0,489.0
265,1685094925974,487.0,448.0
266,1685094925974,429.0,453.0
267,1685094925974,419.0,441.0
268,1685094925974,445.0,402.0
269,1685094925974,494.0,476.0
270,1685094925974,397.0,369.0
271,1685094925974,460.0,425.0
272,1685094925974,488.0,469.0
273,1685094925974,361.0,369.0
274,1685094925974,419.0,410.0
275,1685094925974,389.0,439.0
276,1685094925974,410.0,418.0
277,1685094925974,384.0,459.0
278,1685094925974,438.0,434.0
279,1685094925974,408.0,489.0
280,1685094925974,432.0,429.0
281,1685094925974,401.0,463.0
282,1685094925974,495.0,437.0
283,1685094925974,440.0,441.0
284,1685094925974,467.0,453.0
285,1685094925974,432.0,388.0
286,1685094925974,485.0,476.0
287,1685094925974,423.0,398.0
288,1685094925974,422.0,398.0
289,1685094925974,524.0,487.0
290,1685094925974,385.0,395.0
291,1685094925974,382.0,384.0
292,1685094925974,405.0,436.0
293,1685094925974,409.0,411.0
294,1685094925974,395.0,475.0
295,1685094925974,460.0,428.0
296,1685094925974,405.0,485.0
297,1685094925974,481.0,434.0
298,1685094925974,408.0,459.0
299,1685094925974,525.0,449.0
300,1685094925974,452.0,433.0
301,1685094925974,476.0,459.0
302,1685094925974,419.0,386.0
303,1685094925974,487.0,463.0
304,1685094925974,430.0,415.0
305,1685094925974,378.0,372.0
306,1685094925974,480.0,446.0
307,1685094925974,386.0,406.0
308,1685094925974,378.0,389.0
309,1685094925974,375.0,441.0
310,1685094925974,437.0,433.0
311,1685094925974,414.0,481.0
312,1685094925974,471.0,446.0
313,1685094925974,422.0,482.0
314,1685094925974,498.0,438.0
315,1685094925974,427.0,464.0
316,1685094925974,479.0,444.0
317,1685094925974,454.0,416.0
318,1685094925974,462.0,464.0
319,1685094925974,392.0,364.0
320,1685094925974,455.0,446.0
321,1685094925974,469.0,465.0
322,1685094925974,358.0,354.0
323,1685094925974,439.0,426.0
324,1685094925974,417.0,421.0
325,1685094925974,401.0,400.0
326,1685094925974,390.0,449.0
327,1685094925980,449.0,440.0
328,1685094925980,420.0,488.0
329,1685094925980,461.0,439.0
330,1685094925980,407.0,468.0
331,1685094925980,493.0,447.0
332,1685094925980,404.0,449.0
333,1685094925980,461.0,441.0
334,1685094925980,436.0,404.0
335,1685094925980,494.0,466.0
336,1685094925980,403.0,381.0
337,1685094925980,449.0,425.0
338,1685094925980,500.0,467.0
339,1685094925980,385.0,389.0
340,1685094925980,401.0,400.0
341,1685094925980,405.0,432.0
342,1685094925980,412.0,419.0
343,1685094925980,394.0,462.0
344,1685094925980,468.0,434.0
345,1685094925980,440.0,492.0
346,1685094925980,477.0,448.0
347,1685094925980,415.0,458.0
348,1685094925980,495.0,448.0
349,1685094925980,445.0,441.0
350,1685094925980,488.0,454.0
351,1685094925980,421.0,388.0
352,1685094925980,490.0,475.0
353,1685094925980,419.0,397.0
354,1685094925980,401.0,390.0
355,1685094925980,493.0,461.0
356,1685094925980,384.0,404.0
357,1685094925980,384.0,389.0
358,1685094925980,400.0,450.0
359,1685094925980,423.0,419.0
360,1685094925980,421.0,472.0
361,1685094925980,475.0,441.0
362,1685094925980,420.0,487.0
363,1685094925980,496.0,449.0
364,1685094925980,422.0,455.0
365,1685094925980,484.0,451.0
366,1685094925980,465.0,432.0
367,1685094925980,474.0,459.0
368,1685094925980,425.0,371.0
369,1685094925980,476.0,454.0
370,1685094925980,425.0,417.0
371,1685094925980,371.0,373.0
372,1685094925980,472.0,446.0
373,1685094925980,403.0,414.0
374,1685094925980,398.0,402.0
375,1685094925980,406.0,436.0
376,1685094925980,449.0,442.0
377,1685094925980,419.0,496.0
378,1685094925980,473.0,424.0
379,1685094925980,407.0,474.0
380,1685094925980,498.0,444.0
381,1685094925980,428.0,457.0
382,1685094925980,471.0,433.0
383,1685094925980,457.0,413.0
384,1685094925980,483.0,465.0
385,1685094925980,402.0,377.0
386,1685094925980,470.0,429.0
387,1685094925980,472.0,450.0
388,1685094925980,363.0,374.0
389,1685094925980,432.0,400.0
390,1685094925980,429.0,437.0
391,1685094925980,398.0,401.0
392,1685094925980,380.0,450.0
393,1685094925980,453.0,433.0
394,1685094925980,418.0,494.0
395,1685094925980,469.0,429.0
396,1685094925980,409.0,468.0
397,1685094925980,501.0,446.0
398,1685094925980,472.0,450.0
399,1685094925980,475.0,451.0
400,1685094925980,448.0,393.0
401,1685094925980,502.0,481.0
402,1685094925980,407.0,390.0
403,1685094925980,433.0,399.0
404,1685094925980,493.0,476.0
405,1685094925980,368.0,384.0
406,1685094925980,396.0,388.0
407,1685094925980,393.0,426.0
408,1685094925980,426.0,424.0
409,1685094925980,395.0,465.0
410,1685094925980,458.0,438.0
411,1685094925980,426.0,488.0
412,1685094925980,489.0,447.0
413,1685094925980,423.0,476.0
414,1685094925980,488.0,444.0
415,1685094925980,469.0,449.0
416,1685094925980,500.0,465.0
417,1685094925980,404.0,382.0
418,1685094925980,488.0,462.0
419,1685094925980,416.0,420.0
420,1685094925980,387.0,383.0
421,1685094925980,479.0,456.0
422,1685094925980,393.0,399.0
423,1685094925980,381.0,395.0
424,1685094925980,396.0,438.0
425,1685094925980,445.0,448.0
426,1685094925980,416.0,484.0
427,1685094925980,474.0,441.0
428,1685094925980,422.0,492.0
429,1685094925980,492.0,438.0
430,1685094925980,427.0,455.0
431,1685094925980,474.0,447.0
432,1685094925980,439.0,427.0
433,1685094925980,468.0,461.0
434,1685094925980,399.0,362.0
435,1685094925980,476.0,440.0
436,1685094925980,454.0,436.0
437,1685094925980,363.0,362.0
438,1685094925980,450.0,418.0
439,1685094925980,412.0,419.0
440,1685094925980,386.0,407.0
441,1685094925980,389.0,442.0
442,1685094925980,434.0,418.0
443,1685094925980,436.0,505.0
444,1685094925980,477.0,440.0
445,1685094925980,388.0,469.0
446,1685094925980,483.0,447.0
447,1685094925980,437.0,459.0
448,1685094925980,465.0,433.0
449,1685094925980,442.0,406.0
450,1685094925980,498.0,476.0
451,1685094925980,398.0,368.0
452,1685094925980,460.0,427.0
453,1685094925980,514.0,470.0
454,1685094925980,361.0,381.0
455,1685094925980,411.0,396.0
456,1685094925980,410.0,443.0
457,1685094925980,418.0,414.0
458,1685094925980,379.0,458.0
459,1685094925980,446.0,432.0
460,1685094925980,415.0,496.0
461,1685094925980,480.0,427.0
462,1685094925980,413.0,471.0
463,1685094925980,505.0,445.0
464,1685094925980,456.0,443.0
465,1685094925980,475.0,454.0
466,1685094925980,441.0,386.0
467,1685094925980,499.0,474.0
468,1685094925980,414.0,391.0
469,1685094925980,409.0,400.0
470,1685094925980,517.0,459.0
471,1685094925980,378.0,394.0
472,1685094925980,371.0,388.0
473,1685094925980,396.0,441.0
474,1685094925980,421.0,428.0
475,1685094925980,391.0,468.0
476,1685094925980,471.0,439.0
477,1685094925980,420.0,485.0
478,1685094925980,496.0,448.0
479,1685094925980,428.0,472.0
480,1685094925980,490.0,437.0
481,1685094925980,450.0,434.0
482,1685094925980,482.0,459.0
483,1685094925980,410.0,360.0
484,1685094925980,480.0,448.0
485,1685094925980,430.0,418.0
486,1685094925980,375.0,374.0
487,1685094925980,465.0,442.0
488,1685094925980,407.0,423.0
489,1685094925980,386.0,400.0
490,1685094925980,387.0,432.0
491,1685094925980,450.0,439.0
492,1685094925980,421.0,501.0
493,1685094925980,470.0,439.0
494,1685094925980,412.0,479.0
495,1685094925980,497.0,447.0
496,1685094925980,432.0,455.0
497,1685094925980,478.0,445.0
498,1685094925980,447.0,402.0
499,1685094925980,485.0,463.0
500,1685094925980,396.0,371.0
501,1685094925980,458.0,426.0
502,1685094925980,475.0,456.0
503,1685094925980,351.0,351.0
504,1685094925980,422.0,416.0
505,1685094925980,403.0,433.0
506,1685094925980,399.0,409.0
507,1685094925980,384.0,453.0
508,1685094925980,449.0,428.0
509,1685094925980,408.0,491.0
510,1685094925980,470.0,432.0
511,1685094925980,405.0,471.0
512,1685094925980,500.0,445.0
513,1685094925980,437.0,436.0
514,1685094925980,468.0,448.0
515,1685094925980,436.0,390.0
516,1685094925980,487.0,474.0
517,1685094925980,417.0,387.0
518,1685094925980,444.0,418.0
519,1685094925980,509.0,472.0
520,1685094925980,368.0,383.0
521,1685094925980,376.0,383.0
522,1685094925980,409.0,431.0
523,1685094925980,413.0,420.0
524,1685094925980,385.0,467.0
525,1685094925980,455.0,436.0
526,1685094925980,416.0,490.0
527,1685094925980,474.0,428.0
528,1685094925980,419.0,465.0
529,1685094925980,489.0,453.0
530,1685094925980,457.0,438.0
531,1685094925980,481.0,455.0
532,1685094925980,431.0,387.0
533,1685094925980,496.0,453.0
534,1685094925980,421.0,406.0
535,1685094925980,390.0,384.0
536,1685094925980,491.0,459.0
537,1685094925980,395.0,404.0
538,1685094925980,376.0,396.0
539,1685094925980,380.0,433.0
540,1685094925980,428.0,426.0
541,1685094925980,399.0,477.0
542,1685094925980,466.0,435.0
543,1685094925980,417.0,491.0
544,1685094925980,501.0,440.0
545,1685094925980,416.0,450.0
546,1685094925980,483.0,449.0
547,1685094925980,462.0,421.0
548,1685094925980,476.0,452.0
549,1685094925980,409.0,373.0
550,1685094925980,479.0,446.0
551,1685094925980,447.0,437.0
552,1685094925980,361.0,360.0
553,1685094925980,451.0,416.0
554,1685094925980,403.0,430.0
555,1685094925980,383.0,401.0
556,1685094925980,382.0,446.0
557,1685094925980,458.0,435.0
558,1685094925980,426.0,500.0
559,1685094925980,471.0,437.0
560,1685094925980,409.0,481.0
561,1685094925980,495.0,434.0
562,1685094925980,424.0,449.0
563,1685094925980,465.0,438.0
564,1685094925980,474.0,429.0
565,1685094925980,512.0,473.0
566,1685094925980,401.0,362.0
567,1685094925980,472.0,429.0
568,1685094925980,492.0,453.0
569,1685094925980,356.0,381.0
570,1685094925980,416.0,405.0
571,1685094925980,411.0,442.0
572,1685094925980,401.0,411.0
573,1685094925980,384.0,452.0
574,1685094925980,445.0,425.0
575,1685094925980,413.0,495.0
576,1685094925980,476.0,432.0
577,1685094925980,397.0,457.0
578,1685094925980,491.0,437.0
579,1685094925980,455.0,442.0
580,1685094925980,471.0,451.0
581,1685094925980,451.0,389.0
582,1685094925980,489.0,471.0
583,1685094925980,413.0,389.0
584,1685094925980,416.0,406.0
585,1685094925980,514.0,476.0
586,1685094925980,378.0,396.0
587,1685094925980,378.0,389.0
588,1685094925980,404.0,442.0
589,1685094925980,426.0,415.0
590,1685094925980,381.0,470.0
591,1685094925980,466.0,434.0
592,1685094925980,415.0,487.0
593,1685094925980,500.0,443.0
594,1685094925980,425.0,468.0
595,1685094925980,496.0,441.0
596,1685094925980,469.0,441.0
597,1685094925980,481.0,443.0
598,1685094925980,414.0,386.0
599,1685094925980,486.0,453.0
600,1685094925980,431.0,430.0
601,1685094925980,374.0,374.0
602,1685094925980,489.0,452.0
603,1685094925980,393.0,409.0
604,1685094925980,369.0,388.0
605,1685094925980,388.0,449.0
606,1685094925980,437.0,432.0
607,1685094925980,412.0,481.0
608,1685094925980,494.0,440.0
609,1685094925980,404.0,481.0
610,1685094925980,506.0,447.0
611,1685094925980,429.0,443.0
612,1685094925980,477.0,438.0
613,1685094925980,462.0,422.0
614,1685094925980,483.0,470.0
615,1685094925980,410.0,369.0
616,1685094925980,475.0,443.0
617,1685094925980,467.0,456.0
618,1685094925980,336.0,356.0
619,1685094925980,439.0,425.0
620,1685094925980,413.0,428.0
621,1685094925980,381.0,402.0
622,1685094925980,389.0,451.0
623,1685094925980,438.0,429.0
624,1685094925980,416.0,501.0
625,1685094925980,470.0,434.0
626,1685094925980,402.0,462.0
627,1685094925980,494.0,441.0
628,1685094925980,433.0,452.0
629,1685094925980,467.0,444.0
630,1685094925980,451.0,396.0
631,1685094925980,503.0,484.0
632,1685094925980,403.0,374.0
633,1685094925980,433.0,416.0
634,1685094925980,521.0,482.0
635,1685094925980,366.0,369.0
636,1685094925980,401.0,400.0
637,1685094925980,414.0,444.0
638,1685094925980,404.0,411.0
639,1685094925980,382.0,474.0
640,1685094925980,442.0,421.0
641,1685094925980,419.0,503.0
642,1685094925980,475.0,427.0
643,1685094925980,422.0,472.0
644,1685094925980,495.0,441.0
645,1685094925980,460.0,437.0
646,1685094925980,482.0,459.0
647,1685094925980,437.0,390.0
648,1685094925980,496.0,465.0
649,1685094925980,432.0,396.0
650,1685094925980,401.0,386.0
651,1685094925980,531.0,493.0
652,1685094925980,388.0,402.0
653,1685094925980,369.0,388.0
654,1685094925980,399.0,449.0
655,1685094925980,415.0,423.0
656,1685094925980,386.0,477.0
657,1685094925980,464.0,438.0
658,1685094925980,409.0,488.0
659,1685094925980,482.0,438.0
660,1685094925980,419.0,457.0
661,1685094925980,491.0,444.0
662,1685094925980,462.0,433.0
663,1685094925980,474.0,459.0
664,1685094925980,408.0,376.0
665,1685094925980,480.0,448.0
666,1685094925980,451.0,432.0
667,1685094925980,361.0,366.0
668,1685094925980,464.0,439.0
669,1685094925980,406.0,424.0
670,1685094925980,376.0,394.0
671,1685094925980,377.0,444.0
672,1685094925980,436.0,423.0
673,1685094925980,414.0,495.0
674,1685094925980,473.0,442.0
675,1685094925980,411.0,476.0
676,1685094925980,497.0,447.0
677,1685094925980,433.0,452.0
678,1685094925980,474.0,436.0
679,1685094925980,453.0,409.0
680,1685094925980,482.0,463.0
681,1685094925980,392.0,370.0
682,1685094925980,471.0,438.0
683,1685094925980,488.0,458.0
684,1685094925980,367.0,359.0
685,1685094925980,423.0,398.0
686,1685094925980,406.0,442.0
687,1685094925980,406.0,419.0
688,1685094925980,372.0,452.0
689,1685094925980,453.0,436.0
690,1685094925980,400.0,489.0
691,1685094925980,471.0,423.0
692,1685094925980,404.0,476.0
693,1685094925980,498.0,435.0
694,1685094925980,425.0,444.0
695,1685094925980,475.0,442.0
696,1685094925980,452.0,394.0
697,1685094925980,504.0,475.0
698,1685094925980,418.0,391.0
699,1685094925980,436.0,406.0
700,1685094925980,532.0,502.0
701,1685094925980,397.0,397.0
702,1685094925980,385.0,378.0
703,1685094925980,393.0,443.0
704,1685094925980,412.0,417.0
705,1685094925980,392.0,467.0
706,1685094925980,445.0,432.0
707,1685094925980,412.0,493.0
708,1685094925980,485.0,440.0
709,1685094925980,422.0,465.0
710,1685094925980,500.0,461.0
711,1685094925980,473.0,439.0
712,1685094925980,476.0,449.0
713,1685094925980,438.0,379.0
714,1685094925980,499.0,467.0
715,1685094925980,425.0,406.0
716,1685094925980,400.0,383.0
717,1685094925980,477.0,453.0
718,1685094925980,387.0,414.0
719,1685094925980,370.0,390.0
720,1685094925980,378.0,421.0
721,1685094925980,426.0,439.0
722,1685094925980,397.0,485.0
723,1685094925980,464.0,441.0
724,1685094925980,417.0,484.0
725,1685094925980,500.0,443.0
726,1685094925980,426.0,453.0
727,1685094925980,485.0,441.0
728,1685094925980,480.0,426.0
729,1685094925980,481.0,452.0
730,1685094925980,416.0,385.0
731,1685094925980,475.0,438.0
732,1685094925980,455.0,448.0
733,1685094925980,358.0,365.0
734,1685094925980,436.0,416.0
735,1685094925980,419.0,439.0
736,1685094925980,388.0,406.0
737,1685094925980,388.0,453.0
738,1685094925980,439.0,430.0
739,1685094925980,407.0,492.0
740,1685094925980,468.0,430.0
741,1685094925980,405.0,470.0
742,1685094925980,491.0,436.0
743,1685094925980,433.0,435.0
744,1685094925980,466.0,440.0
745,1685094925980,466.0,401.0
746,1685094925980,500.0,474.0
747,1685094925980,407.0,372.0
748,1685094925980,470.0,432.0
749,1685094925980,521.0,474.0
750,1685094925980,373.0,378.0
751,1685094925980,407.0,398.0
752,1685094925980,407.0,435.0
753,1685094925980,403.0,417.0
754,1685094925980,388.0,456.0
755,1685094925980,432.0,428.0
756,1685094925980,401.0,489.0
757,1685094925980,467.0,435.0
758,1685094925980,412.0,465.0
759,1685094925980,511.0,451.0
760,1685094925980,471.0,443.0
761,1685094925980,487.0,455.0
762,1685094925980,461.0,394.0
763,1685094925980,504.0,473.0
764,1685094925980,422.0,401.0
765,1685094925980,431.0,400.0
766,1685094925980,503.0,464.0
767,1685094925980,378.0,402.0
768,1685094925980,372.0,386.0
769,1685094925980,394.0,430.0
770,1685094925980,419.0,417.0
771,1685094925980,387.0,482.0
772,1685094925980,461.0,438.0
773,1685094925980,414.0,481.0
774,1685094925980,497.0,449.0
775,1685094925980,433.0,469.0
776,1685094925980,490.0,443.0
777,1685094925980,484.0,449.0
778,1685094925980,477.0,450.0
779,1685094925980,416.0,370.0
780,1685094925980,484.0,453.0
781,1685094925980,433.0,424.0
782,1685094925980,371.0,361.0
783,1685094925980,468.0,439.0
784,1685094925980,395.0,412.0
785,1685094925980,379.0,387.0
786,1685094925980,391.0,447.0
787,1685094925980,434.0,445.0
788,1685094925980,403.0,496.0
789,1685094925980,458.0,432.0
790,1685094925980,403.0,470.0
791,1685094925980,490.0,445.0
792,1685094925980,406.0,447.0
793,1685094925980,464.0,436.0
794,1685094925980,462.0,407.0
795,1685094925980,492.0,475.0
796,1685094925980,410.0,369.0
797,1685094925980,465.0,439.0
798,1685094925980,481.0,449.0
799,1685094925980,355.0,367.0
800,1685094925990,428.0,421.0
801,1685094925990,422.0,443.0
802,1685094925990,403.0,406.0
803,1685094925990,373.0,455.0
804,1685094925990,439.0,427.0
805,1685094925990,410.0,491.0
806,1685094925990,464.0,429.0
807,1685094925990,391.0,460.0
808,1685094925990,485.0,442.0
809,1685094925990,452.0,446.0
810,1685094925990,472.0,449.0
811,1685094925990,455.0,398.0
812,1685094925990,489.0,473.0
813,1685094925990,414.0,394.0
814,1685094925990,456.0,414.0
815,1685094925990,512.0,478.0
816,1685094925990,373.0,390.0
817,1685094925990,387.0,387.0
818,1685094925990,391.0,437.0
819,1685094925990,399.0,423.0
820,1685094925990,372.0,460.0
821,1685094925990,452.0,423.0
822,1685094925990,416.0,499.0
823,1685094925990,485.0,432.0
824,1685094925990,426.0,459.0
825,1685094925990,496.0,450.0
826,1685094925990,483.0,443.0
827,1685094925990,480.0,443.0
828,1685094925990,434.0,384.0
829,1685094925990,502.0,463.0
830,1685094925990,412.0,409.0
831,1685094925990,401.0,381.0
832,1685094925990,491.0,470.0
833,1685094925990,390.0,406.0
834,1685094925990,385.0,386.0
835,1685094925990,378.0,429.0
836,1685094925990,429.0,428.0
837,1685094925990,402.0,481.0
838,1685094925990,469.0,446.0
839,1685094925990,411.0,485.0
840,1685094925990,493.0,449.0
841,1685094925990,447.0,462.0
842,1685094925990,481.0,441.0
843,1685094925990,472.0,432.0
844,1685094925990,481.0,470.0
845,1685094925990,423.0,363.0
846,1685094925990,481.0,443.0
847,1685094925990,446.0,438.0
848,1685094925990,361.0,362.0
849,1685094925990,448.0,423.0
850,1685094925990,415.0,434.0
851,1685094925990,386.0,404.0
852,1685094925990,375.0,439.0
853,1685094925990,462.0,443.0
854,1685094925990,412.0,503.0
855,1685094925990,455.0,433.0
856,1685094925990,417.0,474.0
857,1685094925990,490.0,438.0
858,1685094925990,434.0,445.0
859,1685094925990,466.0,446.0
860,1685094925990,453.0,391.0
861,1685094925990,484.0,476.0
862,1685094925990,401.0,383.0
863,1685094925990,473.0,428.0
864,1685094925990,505.0,482.0
865,1685094925990,372.0,383.0
866,1685094925990,414.0,400.0
867,1685094925990,410.0,441.0
868,1685094925990,408.0,414.0
869,1685094925990,374.0,457.0
870,1685094925990,429.0,426.0
871,1685094925990,407.0,489.0
872,1685094925990,474.0,434.0
873,1685094925990,409.0,463.0
874,1685094925990,501.0,442.0
875,1685094925990,470.0,444.0
876,1685094925990,480.0,452.0
877,1685094925990,445.0,381.0
878,1685094925990,501.0,479.0
879,1685094925990,425.0,401.0
880,1685094925990,425.0,411.0
881,1685094925990,505.0,472.0
882,1685094925990,406.0,408.0
883,1685094925990,372.0,372.0
884,1685094925990,390.0,429.0
885,1685094925990,418.0,421.0
886,1685094925990,385.0,471.0
887,1685094925990,461.0,434.0
888,1685094925990,403.0,495.0
889,1685094925990,488.0,445.0
890,1685094925990,432.0,464.0
891,1685094925990,503.0,438.0
892,1685094925990,460.0,441.0
893,1685094925990,483.0,466.0
894,1685094925990,430.0,385.0
895,1685094925990,489.0,460.0
896,1685094925990,419.0,404.0
897,1685094925990,365.0,368.0
898,1685094925990,467.0,435.0
899,1685094925990,388.0,406.0
900,1685094925990,391.0,395.0
901,1685094925990,380.0,435.0
902,1685094925990,434.0,436.0
903,1685094925990,413.0,499.0
904,1685094925990,477.0,442.0
905,1685094925990,409.0,474.0
906,1685094925990,497.0,437.0
907,1685094925990,431.0,452.0
908,1685094925990,468.0,439.0
909,1685094925990,452.0,417.0
910,1685094925990,476.0,457.0
911,1685094925990,404.0,371.0
912,1685094925990,480.0,444.0
913,1685094925990,481.0,465.0
914,1685094925990,356.0,362.0
915,1685094925990,454.0,422.0
916,1685094925990,413.0,429.0
917,1685094925990,407.0,426.0
918,1685094925990,384.0,437.0
919,1685094925990,448.0,432.0
920,1685094925990,391.0,485.0
921,1685094925990,462.0,430.0
922,1685094925990,397.0,461.0
923,1685094925990,485.0,442.0
924,1685094925990,450.0,449.0
925,1685094925990,472.0,440.0
926,1685094925990,465.0,400.0
927,1685094925990,504.0,464.0
928,1685094925990,417.0,400.0
929,1685094925990,463.0,429.0
930,1685094925990,519.0,479.0
931,1685094925990,370.0,394.0
932,1685094925990,395.0,387.0
933,1685094925990,399.0,433.0
934,1685094925990,396.0,413.0
935,1685094925990,374.0,462.0
936,1685094925990,440.0,420.0
937,1685094925990,394.0,496.0
938,1685094925990,480.0,448.0
939,1685094925990,421.0,456.0
940,1685094925990,497.0,453.0
941,1685094925990,471.0,450.0
942,1685094925990,482.0,455.0
943,1685094925990,439.0,381.0
944,1685094925990,506.0,479.0
945,1685094925990,420.0,398.0
946,1685094925990,390.0,385.0
947,1685094925990,476.0,461.0
948,1685094925990,376.0,404.0
949,1685094925990,371.0,379.0
950,1685094925990,390.0,449.0
951,1685094925990,420.0,418.0
952,1685094925990,395.0,484.0
953,1685094925990,483.0,451.0
954,1685094925990,415.0,474.0
955,1685094925990,505.0,459.0
956,1685094925990,431.0,461.0
957,1685094925990,475.0,436.0
958,1685094925990,461.0,423.0
959,1685094925990,469.0,452.0
960,1685094925990,406.0,362.0
961,1685094925990,488.0,458.0
962,1685094925990,455.0,438.0
963,1685094925990,362.0,375.0
964,1685094925990,461.0,432.0
965,1685094925990,411.0,431.0
966,1685094925990,385.0,399.0
967,1685094925990,386.0,446.0
968,1685094925990,455.0,432.0
969,1685094925990,406.0,495.0
970,1685094925990,472.0,429.0
971,1685094925990,399.0,470.0
972,1685094925990,488.0,442.0
973,1685094925990,430.0,448.0
974,1685094925990,464.0,433.0
975,1685094925990,448.0,401.0
976,1685094925990,495.0,475.0
977,1685094925990,406.0,381.0
978,1685094925990,481.0,439.0
979,1685094925990,501.0,464.0
980,1685094925990,370.0,377.0
981,1685094925990,397.0,408.0
982,1685094925990,400.0,446.0
983,1685094925990,395.0,402.0
984,1685094925990,383.0,461.0
985,1685094925990,437.0,430.0
986,1685094925990,408.0,500.0
987,1685094925990,479.0,430.0
988,1685094925990,407.0,475.0
989,1685094925990,499.0,443.0
990,1685094925990,467.0,454.0
991,1685094925990,471.0,435.0
992,1685094925990,460.0,402.0
993,1685094925990,490.0,474.0
994,1685094925990,409.0,393.0
995,1685094925990,430.0,407.0
996,1685094925990,504.0,470.0
997,1685094925990,382.0,391.0
998,1685094925990,381.0,392.0
999,1685094925990,393.0,428.0
1000,1685094925990,411.0,424.0
1001,1685094925990,392.0,454.0
1002,1685094925990,453.0,440.0
1003,1685094925990,416.0,494.0
1004,1685094925990,493.0,438.0
1005,1685094925990,428.0,478.0
1006,1685094925990,498.0,449.0
1007,1685094925990,480.0,444.0
1008,1685094925990,479.0,456.0
1009,1685094925990,423.0,373.0
1010,1685094925990,484.0,464.0
1011,1685094925990,430.0,418.0
1012,1685094925990,382.0,372.0
1013,1685094925990,489.0,451.0
1014,1685094925990,397.0,413.0
1015,1685094925990,383.0,392.0
1016,1685094925990,394.0,435.0
1017,1685094925990,446.0,439.0
1018,1685094925990,397.0,487.0
1019,1685094925990,475.0,430.0
1020,1685094925990,401.0,484.0
1021,1685094925990,491.0,434.0
1022,1685094925990,424.0,454.0
1023,1685094925990,490.0,435.0
1024,1685094925990,456.0,419.0
1025,1685094925990,490.0,475.0
1026,1685094925990,411.0,372.0
1027,1685094925990,484.0,443.0
1028,1685094925990,477.0,453.0
1029,1685094925990,373.0,373.0
1030,1685094925990,444.0,405.0
1031,1685094925990,424.0,444.0
1032,1685094925990,391.0,405.0
1033,1685094925990,377.0,447.0
1034,1685094925990,448.0,430.0
1035,1685094925990,409.0,493.0
1036,1685094925990,458.0,430.0
1037,1685094925990,398.0,475.0
1038,1685094925990,496.0,431.0
1039,1685094925990,450.0,455.0
1040,1685094925990,466.0,442.0
1041,1685094925990,462.0,398.0
1042,1685094925990,508.0,478.0
1043,1685094925990,422.0,385.0
1044,1685094925990,466.0,433.0
1045,1685094925990,518.0,469.0
1046,1685094925990,361.0,386.0
1047,1685094925990,399.0,391.0
1048,1685094925990,402.0,431.0
1049,1685094925990,403.0,422.0
1050,1685094925990,377.0,456.0
1051,1685094925990,434.0,432.0
1052,1685094925990,411.0,498.0
1053,1685094925990,473.0,430.0
1054,1685094925990,422.0,472.0
1055,1685094925990,503.0,443.0
1056,1685094925990,467.0,452.0
1057,1685094925990,495.0,451.0
1058,1685094925990,433.0,392.0
1059,1685094925990,500.0,458.0
1060,1685094925990,418.0,408.0
1061,1685094925990,399.0,386.0
1062,1685094925990,507.0,464.0
1063,1685094925990,382.0,408.0
1064,1685094925990,373.0,380.0
1065,1685094925990,385.0,433.0
1066,1685094925990,440.0,436.0
1067,1685094925990,397.0,486.0
1068,1685094925990,466.0,448.0
1069,1685094925990,420.0,490.0
1070,1685094925990,503.0,448.0
1071,1685094925990,422.0,457.0
1072,1685094925990,490.0,430.0
1073,1685094925990,464.0,429.0
1074,1685094925990,481.0,460.0
1075,1685094925990,396.0,367.0
1076,1685094925990,493.0,452.0
1077,1685094925990,431.0,430.0
1078,1685094925990,371.0,368.0
1079,1685094925990,478.0,440.0
1080,1685094925990,406.0,418.0
1081,1685094925990,386.0,417.0
1082,1685094925990,382.0,437.0
1083,1685094925990,431.0,432.0
1084,1685094925990,406.0,497.0
1085,1685094925990,464.0,433.0
1086,1685094925990,398.0,472.0
1087,1685094925990,495.0,456.0
1088,1685094925990,436.0,441.0
1089,1685094925990,464.0,433.0
1090,1685094925990,448.0,402.0
1091,1685094925990,494.0,469.0
1092,1685094925990,412.0,376.0
1093,1685094925990,482.0,438.0
1094,1685094925990,516.0,475.0
1095,1685094925990,357.0,368.0
1096,1685094925990,436.0,412.0
1097,1685094925990,417.0,437.0
1098,1685094925990,354.0,410.0
1099,1685094925990,370.0,455.0
1100,1685094925990,438.0,423.0
1101,1685094925990,394.0,486.0
1102,1685094925990,472.0,436.0
1103,1685094925990,400.0,476.0
1104,1685094925990,497.0,443.0
1105,1685094925990,469.0,459.0
1106,1685094925990,482.0,443.0
1107,1685094925990,450.0,396.0
1108,1685094925990,515.0,480.0
1109,1685094925990,415.0,387.0
1110,1685094925990,440.0,408.0
1111,1685094925990,516.0,475.0
1112,1685094925990,375.0,395.0
1113,1685094925990,369.0,384.0
1114,1685094925990,394.0,421.0
1115,1685094925990,408.0,426.0
1116,1685094925990,390.0,480.0
1117,1685094925990,456.0,434.0
1118,1685094925990,422.0,502.0
1119,1685094925990,499.0,450.0
1120,1685094925990,421.0,477.0
1121,1685094925990,505.0,447.0
1122,1685094925990,474.0,442.0
1123,1685094925990,464.0,427.0
1124,1685094925990,406.0,370.0
1125,1685094925990,496.0,464.0
1126,1685094925990,425.0,408.0
1127,1685094925990,352.0,360.0
1128,1685094925990,484.0,464.0
1129,1685094925990,399.0,417.0
1130,1685094925990,377.0,388.0
1131,1685094925990,398.0,455.0
1132,1685094925990,432.0,429.0
1133,1685094925990,410.0,483.0
1134,1685094925990,467.0,437.0
1135,1685094925990,404.0,475.0
1136,1685094925990,493.0,440.0
1137,1685094925990,416.0,451.0
1138,1685094925990,461.0,428.0
1139,1685094925990,456.0,414.0
1140,1685094925990,474.0,458.0
1141,1685094925990,406.0,373.0
1142,1685094925990,497.0,451.0
1143,1685094925990,480.0,458.0
1144,1685094925990,366.0,364.0
1145,1685094925990,435.0,414.0
1146,1685094925990,417.0,436.0
1147,1685094925990,399.0,411.0
1148,1685094925990,389.0,449.0
1149,1685094925990,446.0,440.0
1150,1685094925990,404.0,484.0
1151,1685094925990,430.0,431.0
1152,1685094925990,399.0,467.0
1153,1685094925990,497.0,435.0
1154,1685094925990,445.0,451.0
1155,1685094925990,467.0,444.0
1156,1685094925990,468.0,401.0
1157,1685094925990,516.0,476.0
1158,1685094925990,417.0,384.0
1159,1685094925990,461.0,421.0
1160,1685094925990,521.0,482.0
1161,1685094925990,354.0,377.0
1162,1685094925990,385.0,399.0
1163,1685094925990,399.0,424.0
1164,1685094925990,389.0,419.0
1165,1685094925990,370.0,452.0
1166,1685094925990,440.0,425.0
1167,1685094925990,413.0,494.0
1168,1685094925990,499.0,448.0
1169,1685094925990,427.0,466.0
1170,1685094925990,508.0,453.0
1171,1685094925990,471.0,444.0
1172,1685094925990,472.0,438.0
1173,1685094925990,441.0,391.0
1174,1685094925990,499.0,463.0
1175,1685094925990,418.0,404.0
1176,1685094925990,400.0,389.0
1177,1685094925990,491.0,459.0
1178,1685094925990,385.0,402.0
1179,1685094925990,374.0,389.0
1180,1685094925990,396.0,442.0
1181,1685094925990,431.0,428.0
1182,1685094925990,402.0,478.0
1183,1685094925990,481.0,438.0
1184,1685094925990,421.0,485.0
1185,1685094925990,498.0,437.0
1186,1685094925990,416.0,463.0
1187,1685094925990,484.0,441.0
1188,1685094925990,466.0,418.0
1189,1685094925990,482.0,451.0
1190,1685094925990,407.0,370.0
1191,1685094925990,491.0,446.0
1192,1685094925990,449.0,426.0
1193,1685094925990,370.0,365.0
1194,1685094925990,473.0,436.0
1195,1685094925990,405.0,413.0
1196,1685094925990,380.0,402.0
1197,1685094925990,380.0,445.0
1198,1685094925990,441.0,436.0
1199,1685094925990,402.0,492.0
1200,1685094925990,472.0,439.0
1201,1685094925990,396.0,461.0
1202,1685094925990,495.0,442.0
1203,1685094925990,432.0,449.0
1204,1685094925990,462.0,435.0
1205,1685094925990,453.0,412.0
1206,1685094925990,507.0,487.0
1207,1685094925990,418.0,376.0
1208,1685094925990,478.0,435.0
1209,1685094925990,506.0,468.0
1210,1685094925990,363.0,373.0
1211,1685094925990,427.0,405.0
1212,1685094925990,406.0,430.0
1213,1685094925996,395.0,412.0
1214,1685094925996,369.0,445.0
1215,1685094925996,441.0,438.0
1216,1685094925996,396.0,486.0
1217,1685094925996,478.0,435.0
1218,1685094925996,403.0,473.0
1219,1685094925996,510.0,447.0
1220,1685094925996,458.0,454.0
1221,1685094925996,478.0,443.0
1222,1685094925996,460.0,396.0
1223,1685094925996,511.0,475.0
1224,1685094925996,411.0,391.0
1225,1685094925996,434.0,411.0
1226,1685094925996,520.0,484.0
1227,1685094925996,383.0,403.0
1228,1685094925996,384.0,385.0
1229,1685094925996,398.0,434.0
1230,1685094925996,404.0,418.0
1231,1685094925996,382.0,466.0
1232,1685094925996,472.0,440.0
1233,1685094925996,419.0,498.0
1234,1685094925996,508.0,451.0
1235,1685094925996,415.0,469.0
1236,1685094925996,498.0,447.0
1237,1685094925996,464.0,433.0
1238,1685094925996,485.0,464.0
1239,1685094925996,425.0,378.0
1240,1685094925996,483.0,457.0
1241,1685094925996,433.0,416.0
1242,1685094925996,375.0,364.0
1243,1685094925996,485.0,462.0
1244,1685094925996,403.0,419.0
1245,1685094925996,368.0,381.0
1246,1685094925996,393.0,449.0
1247,1685094925996,436.0,432.0
1248,1685094925996,409.0,483.0
1249,1685094925996,461.0,446.0
1250,1685094925996,413.0,482.0
1251,1685094925996,488.0,437.0
1252,1685094925996,423.0,447.0
1253,1685094925996,476.0,438.0
1254,1685094925996,428.0,379.0
1255,1685094925996,476.0,477.0
1256,1685094925996,407.0,375.0
1257,1685094925996,509.0,449.0
1258,1685094925996,487.0,464.0
1259,1685094925996,352.0,348.0
1260,1685094925996,454.0,438.0
1261,1685094925996,422.0,430.0
1262,1685094925996,392.0,402.0
1263,1685094925996,372.0,453.0
1264,1685094925996,431.0,428.0
1265,1685094925996,412.0,486.0
1266,1685094925996,465.0,421.0
1267,1685094925996,391.0,469.0
1268,1685094925996,496.0,442.0
1269,1685094925996,430.0,451.0
1270,1685094925996,450.0,442.0
1271,1685094925996,446.0,392.0
1272,1685094925996,487.0,483.0
1273,1685094925996,382.0,378.0
1274,1685094925996,484.0,410.0
1275,1685094925996,501.0,476.0
1276,1685094925996,379.0,380.0
1277,1685094925996,399.0,386.0
1278,1685094925996,389.0,440.0
1279,1685094925996,372.0,417.0
1280,1685094925996,408.0,453.0
1281,1685094925996,426.0,425.0
1282,1685094925996,426.0,504.0
1283,1685094925996,445.0,428.0
1284,1685094925996,415.0,478.0
1285,1685094925996,472.0,434.0
1286,1685094926017,464.0,451.0
1287,1685094926017,456.0,450.0
1288,1685094926017,423.0,396.0
1289,1685094926049,481.0,452.0
1290,1685094926049,435.0,414.0
1291,1685094926049,382.0,373.0
1292,1685094926049,422.0,451.0
1293,1685094926084,363.0,417.0
1294,1685094926084,393.0,388.0
1295,1685094926084,434.0,431.0
1296,1685094926117,422.0,426.0
1297,1685094926117,384.0,485.0
1298,1685094926117,451.0,446.0
1299,1685094926117,381.0,486.0
1300,1685094926149,425.0,428.0
1301,1685094926149,416.0,457.0
1302,1685094926149,483.0,408.0
1303,1685094926149,457.0,443.0
1304,1685094926184,488.0,453.0
1305,1685094926184,422.0,366.0
1306,1685094926184,483.0,454.0
1307,1685094926216,454.0,437.0
1308,1685094926216,366.0,352.0
1309,1685094926216,476.0,442.0
1310,1685094926216,399.0,419.0
1311,1685094926251,371.0,397.0
1312,1685094926251,386.0,449.0
1313,1685094926251,431.0,430.0
1314,1685094926282,403.0,498.0
1315,1685094926282,455.0,439.0
1316,1685094926282,385.0,472.0
1317,1685094926282,489.0,430.0
1318,1685094926314,433.0,443.0
1319,1685094926314,474.0,439.0
1320,1685094926314,461.0,411.0
1321,1685094926345,510.0,469.0
1322,1685094926345,407.0,378.0
1323,1685094926345,490.0,447.0
1324,1685094926345,508.0,471.0
1325,1685094926377,365.0,368.0
1326,1685094926377,418.0,404.0
1327,1685094926377,398.0,432.0
1328,1685094926408,380.0,416.0
1329,1685094926408,369.0,456.0
1330,1685094926408,428.0,428.0
1331,1685094926408,394.0,487.0
1332,1685094926440,473.0,447.0
1333,1685094926440,405.0,473.0
1334,1685094926440,506.0,444.0
1335,1685094926440,459.0,453.0
1336,1685094926485,480.0,461.0
1337,1685094926485,459.0,386.0
1338,1685094926485,513.0,469.0
1339,1685094926517,415.0,391.0
1340,1685094926517,434.0,395.0
1341,1685094926517,514.0,476.0
1342,1685094926517,374.0,394.0
1343,1685094926551,374.0,386.0
1344,1685094926551,389.0,446.0
1345,1685094926551,401.0,415.0
1346,1685094926583,380.0,469.0
1347,1685094926583,446.0,430.0
1348,1685094926583,414.0,492.0
1349,1685094926583,487.0,441.0
1350,1685094926615,424.0,462.0
1351,1685094926615,496.0,447.0
1352,1685094926615,462.0,426.0
1353,1685094926647,485.0,458.0
1354,1685094926647,427.0,373.0
1355,1685094926647,494.0,462.0
1356,1685094926647,431.0,411.0
1357,1685094926680,396.0,381.0
1358,1685094926680,479.0,446.0
1359,1685094926680,390.0,421.0
1360,1685094926713,380.0,392.0
1361,1685094926713,393.0,449.0
1362,1685094926713,435.0,435.0
1363,1685094926713,384.0,492.0
1364,1685094926741,454.0,438.0
1365,1685094926741,422.0,496.0
1366,1685094926741,497.0,436.0
1367,1685094926741,420.0,449.0
1368,1685094926785,481.0,434.0
1369,1685094926785,467.0,412.0
1370,1685094926785,474.0,468.0
1371,1685094926817,407.0,360.0
1372,1685094926817,493.0,445.0
1373,1685094926817,468.0,449.0
1374,1685094926817,368.0,366.0
1375,1685094926852,444.0,422.0
1376,1685094926852,418.0,430.0
1377,1685094926852,392.0,414.0
1378,1685094926884,376.0,450.0
1379,1685094926884,425.0,429.0
1380,1685094926884,400.0,496.0
1381,1685094926884,459.0,427.0
1382,1685094926917,390.0,466.0
1383,1685094926917,495.0,440.0
1384,1685094926917,443.0,445.0
1385,1685094926948,425.0,443.0
1386,1685094926948,478.0,400.0
1387,1685094926948,500.0,486.0
1388,1685094926948,418.0,384.0
1389,1685094926979,467.0,418.0
1390,1685094926979,493.0,473.0
1391,1685094926979,367.0,384.0
1392,1685094927010,394.0,390.0
1393,1685094927010,407.0,440.0
1394,1685094927010,399.0,412.0
1395,1685094927010,375.0,462.0
1396,1685094927043,442.0,434.0
1397,1685094927043,419.0,492.0
1398,1685094927043,468.0,441.0
1399,1685094927043,416.0,466.0
1400,1685094927086,504.0,443.0
1401,1685094927086,478.0,440.0
1402,1685094927086,471.0,450.0
1403,1685094927117,437.0,377.0
1404,1685094927117,507.0,470.0
1405,1685094927117,407.0,404.0
1406,1685094927117,406.0,388.0
1407,1685094927153,491.0,472.0
1408,1685094927153,387.0,408.0
1409,1685094927153,374.0,390.0
1410,1685094927185,399.0,442.0
1411,1685094927185,429.0,429.0
1412,1685094927185,380.0,475.0
1413,1685094927185,474.0,438.0
1414,1685094927218,407.0,487.0
1415,1685094927218,496.0,442.0
1416,1685094927218,423.0,463.0
1417,1685094927252,472.0,430.0
1418,1685094927252,462.0,437.0
1419,1685094927252,472.0,463.0
1420,1685094927252,419.0,369.0
1421,1685094927280,484.0,454.0
1422,1685094927280,434.0,434.0
1423,1685094927280,365.0,359.0
1424,1685094927313,466.0,436.0
1425,1685094927313,409.0,418.0
1426,1685094927313,386.0,404.0
1427,1685094927313,390.0,451.0
1428,1685094927350,449.0,437.0
1429,1685094927350,396.0,497.0
1430,1685094927350,472.0,447.0
1431,1685094927350,406.0,471.0
1432,1685094927386,484.0,436.0
1433,1685094927386,426.0,443.0
1434,1685094927386,453.0,443.0
1435,1685094927418,458.0,402.0
1436,1685094927418,485.0,467.0
1437,1685094927418,406.0,377.0
1438,1685094927418,471.0,424.0
1439,1685094927454,490.0,473.0
1440,1685094927454,380.0,369.0
1441,1685094927454,416.0,406.0
1442,1685094927485,424.0,442.0
1443,1685094927485,414.0,415.0
1444,1685094927485,387.0,450.0
1445,1685094927485,437.0,437.0
1446,1685094927516,403.0,496.0
1447,1685094927516,470.0,434.0
1448,1685094927516,413.0,471.0
1449,1685094927548,506.0,447.0
1450,1685094927548,464.0,449.0
1451,1685094927548,466.0,445.0
1452,1685094927548,447.0,385.0
1453,1685094927579,509.0,480.0
1454,1685094927579,407.0,386.0
1455,1685094927579,434.0,403.0
1456,1685094927611,514.0,481.0
1457,1685094927611,414.0,412.0
1458,1685094927611,378.0,385.0
1459,1685094927611,400.0,437.0
1460,1685094927643,408.0,421.0
1461,1685094927643,377.0,470.0
1462,1685094927643,449.0,434.0
1463,1685094927643,410.0,503.0
1464,1685094927688,486.0,443.0
1465,1685094927688,425.0,470.0
1466,1685094927688,486.0,442.0
1467,1685094927719,465.0,431.0
1468,1685094927719,461.0,452.0
1469,1685094927719,416.0,374.0
1470,1685094927719,492.0,466.0
1471,1685094927754,416.0,418.0
1472,1685094927754,390.0,377.0
1473,1685094927754,489.0,458.0
1474,1685094927785,397.0,417.0
1475,1685094927785,378.0,390.0
1476,1685094927785,398.0,443.0
1477,1685094927785,454.0,445.0
1478,1685094927816,413.0,495.0
1479,1685094927816,466.0,440.0
1480,1685094927816,417.0,476.0
1481,1685094927850,486.0,432.0
1482,1685094927850,426.0,455.0
1483,1685094927850,456.0,430.0
1484,1685094927850,461.0,409.0
1485,1685094927880,477.0,470.0
1486,1685094927880,399.0,365.0
1487,1685094927880,482.0,443.0
1488,1685094927921,477.0,459.0
1489,1685094927921,373.0,356.0
1490,1685094927921,441.0,421.0
1491,1685094927921,423.0,441.0
1492,1685094927943,394.0,413.0
1493,1685094927943,387.0,440.0
1494,1685094927943,442.0,439.0
1495,1685094927943,422.0,496.0
1496,1685094927988,467.0,430.0
1497,1685094927988,403.0,477.0
1498,1685094927988,479.0,441.0
1499,1685094928019,444.0,442.0
1500,1685094928019,454.0,446.0
1501,1685094928019,441.0,389.0
1502,1685094928019,484.0,469.0
1503,1685094928054,400.0,385.0
1504,1685094928054,467.0,411.0
1505,1685094928054,510.0,488.0
1506,1685094928086,380.0,381.0
1507,1685094928086,398.0,383.0
1508,1685094928086,406.0,449.0
1509,1685094928086,409.0,418.0
1510,1685094928121,383.0,461.0
1511,1685094928121,445.0,432.0
1512,1685094928121,409.0,503.0
1513,1685094928149,472.0,434.0
1514,1685094928149,419.0,484.0
1515,1685094928149,479.0,443.0
1516,1685094928149,461.0,433.0
1517,1685094928181,460.0,458.0
1518,1685094928181,436.0,375.0
1519,1685094928181,495.0,464.0
1520,1685094928221,410.0,404.0
1521,1685094928221,408.0,385.0
1522,1685094928221,498.0,477.0
1523,1685094928221,403.0,410.0
1524,1685094928244,386.0,377.0
1525,1685094928244,402.0,440.0
1526,1685094928244,425.0,415.0
1527,1685094928244,405.0,491.0
1528,1685094928290,472.0,436.0
1529,1685094928290,405.0,485.0
1530,1685094928290,476.0,447.0
1531,1685094928321,418.0,459.0
1532,1685094928321,474.0,439.0
1533,1685094928321,460.0,414.0
1534,1685094928321,468.0,465.0
1535,1685094928356,419.0,369.0
1536,1685094928356,481.0,442.0
1537,1685094928356,445.0,447.0
1538,1685094928387,375.0,356.0
1539,1685094928387,451.0,424.0
1540,1685094928387,406.0,430.0
1541,1685094928387,385.0,400.0
1542,1685094928421,389.0,448.0
1543,1685094928421,449.0,430.0
1544,1685094928421,411.0,498.0
1545,1685094928453,474.0,439.0
1546,1685094928453,403.0,469.0
1547,1685094928453,489.0,441.0
1548,1685094928453,429.0,453.0
1549,1685094928485,471.0,437.0
1550,1685094928485,455.0,395.0
1551,1685094928485,482.0,471.0
1552,1685094928521,408.0,373.0
1553,1685094928521,486.0,434.0
1554,1685094928521,484.0,480.0
1555,1685094928521,375.0,368.0
1556,1685094928547,416.0,394.0
1557,1685094928547,427.0,448.0
1558,1685094928547,407.0,400.0
1559,1685094928547,384.0,458.0
1560,1685094928589,438.0,427.0
1561,1685094928589,413.0,493.0
1562,1685094928589,477.0,434.0
1563,1685094928622,401.0,463.0
1564,1685094928622,506.0,449.0
1565,1685094928622,455.0,452.0
1566,1685094928622,476.0,444.0
1567,1685094928656,449.0,392.0
1568,1685094928656,513.0,480.0
1569,1685094928656,414.0,391.0
1570,1685094928687,433.0,398.0
1571,1685094928687,503.0,481.0
1572,1685094928687,404.0,404.0
1573,1685094928687,376.0,382.0
1574,1685094928722,399.0,434.0
1575,1685094928722,421.0,422.0
1576,1685094928722,394.0,470.0
1577,1685094928753,461.0,437.0
1578,1685094928753,416.0,498.0
1579,1685094928753,486.0,448.0
1580,1685094928753,415.0,459.0
1581,1685094928781,485.0,442.0
1582,1685094928781,471.0,428.0
1583,1685094928781,465.0,453.0
1584,1685094928822,431.0,378.0
1585,1685094928822,490.0,457.0
1586,1685094928822,430.0,421.0
1587,1685094928822,389.0,369.0
1588,1685094928844,471.0,448.0
1589,1685094928844,403.0,421.0
1590,1685094928844,392.0,392.0
1591,1685094928844,397.0,448.0
1592,1685094928890,443.0,440.0
1593,1685094928890,409.0,489.0
1594,1685094928890,465.0,437.0
1595,1685094928922,404.0,486.0
1596,1685094928922,485.0,442.0
1597,1685094928922,415.0,447.0
1598,1685094928922,466.0,434.0
1599,1685094928956,465.0,412.0
1600,1685094928956,470.0,460.0
1601,1685094928956,414.0,376.0
1602,1685094928988,483.0,443.0
1603,1685094928988,467.0,451.0
1604,1685094928988,367.0,360.0
1605,1685094928988,438.0,420.0
1606,1685094929022,419.0,447.0
1607,1685094929022,396.0,402.0
1608,1685094929022,391.0,457.0
1609,1685094929051,439.0,431.0
1610,1685094929051,394.0,488.0
1611,1685094929051,459.0,431.0
1612,1685094929051,398.0,458.0
1613,1685094929082,484.0,443.0
1614,1685094929082,449.0,444.0
1615,1685094929082,456.0,437.0
1616,1685094929123,455.0,400.0
1617,1685094929123,492.0,476.0
1618,1685094929123,405.0,376.0
1619,1685094929123,458.0,420.0
1620,1685094929147,507.0,472.0
1621,1685094929147,384.0,393.0
1622,1685094929147,415.0,396.0
1623,1685094929147,419.0,437.0
1624,1685094929190,415.0,418.0
1625,1685094929190,387.0,461.0
1626,1685094929190,448.0,434.0
1627,1685094929223,414.0,493.0
1628,1685094929223,479.0,443.0
1629,1685094929223,416.0,473.0
1630,1685094929223,487.0,433.0
1631,1685094929257,470.0,446.0
1632,1685094929257,461.0,453.0
1633,1685094929257,431.0,375.0
1634,1685094929289,487.0,468.0
1635,1685094929289,415.0,400.0
1636,1685094929289,406.0,379.0
1637,1685094929289,498.0,475.0
1638,1685094929323,407.0,413.0
1639,1685094929323,388.0,398.0
1640,1685094929323,411.0,445.0
1641,1685094929352,430.0,427.0
1642,1685094929352,394.0,491.0
1643,1685094929352,469.0,440.0
1644,1685094929352,413.0,486.0
1645,1685094929383,483.0,444.0
1646,1685094929383,419.0,451.0
1647,1685094929383,468.0,436.0
1648,1685094929423,463.0,434.0
1649,1685094929423,467.0,454.0
1650,1685094929423,422.0,370.0
1651,1685094929423,477.0,455.0
1652,1685094929446,441.0,444.0
1653,1685094929446,368.0,357.0
1654,1685094929446,459.0,433.0
1655,1685094929446,425.0,419.0
1656,1685094929491,390.0,408.0
1657,1685094929491,398.0,446.0
1658,1685094929491,454.0,442.0
1659,1685094929523,418.0,500.0
1660,1685094929523,463.0,432.0
1661,1685094929523,403.0,464.0
1662,1685094929523,484.0,437.0
1663,1685094929558,432.0,455.0
1664,1685094929558,450.0,410.0
1665,1685094929558,448.0,411.0
1666,1685094929590,474.0,468.0
1667,1685094929590,399.0,378.0
1668,1685094929590,464.0,425.0
1669,1685094929590,497.0,471.0
1670,1685094929623,383.0,373.0
1671,1685094929623,417.0,407.0
1672,1685094929623,432.0,449.0
1673,1685094929658,423.0,425.0
1674,1685094929658,395.0,451.0
1675,1685094929658,440.0,437.0
1676,1685094929658,413.0,491.0
1677,1685094929690,463.0,446.0
1678,1685094929690,401.0,456.0
1679,1685094929690,474.0,437.0
1680,1685094929724,445.0,439.0
1681,1685094929724,458.0,450.0
1682,1685094929724,454.0,380.0
1683,1685094929724,476.0,467.0
1684,1685094929753,415.0,401.0
1685,1685094929753,440.0,397.0
1686,1685094929753,499.0,482.0
1687,1685094929753,407.0,400.0
1688,1685094929791,392.0,387.0
1689,1685094929791,405.0,438.0
1690,1685094929791,423.0,411.0
1691,1685094929824,391.0,469.0
1692,1685094929824,447.0,427.0
1693,1685094929824,416.0,482.0
1694,1685094929824,475.0,463.0
1695,1685094929859,415.0,451.0
1696,1685094929859,478.0,454.0
1697,1685094929859,466.0,428.0
1698,1685094929890,464.0,464.0
1699,1685094929890,438.0,376.0
1700,1685094929890,481.0,447.0
1701,1685094929890,423.0,431.0
1702,1685094929924,399.0,368.0
1703,1685094929924,480.0,451.0
1704,1685094929924,414.0,424.0
1705,1685094929955,384.0,387.0
1706,1685094929955,401.0,444.0
1707,1685094929955,440.0,440.0
1708,1685094929955,416.0,486.0
1709,1685094929989,459.0,440.0
1710,1685094929989,415.0,487.0
1711,1685094929989,484.0,439.0
1712,1685094930025,422.0,457.0
1713,1685094930025,462.0,430.0
1714,1685094930025,458.0,418.0
1715,1685094930025,458.0,454.0
1716,1685094930048,414.0,371.0
1717,1685094930048,479.0,431.0
1718,1685094930048,459.0,458.0
1719,1685094930048,374.0,361.0
1720,1685094930092,441.0,429.0
1721,1685094930092,431.0,448.0
1722,1685094930092,398.0,408.0
1723,1685094930125,391.0,446.0
1724,1685094930125,441.0,415.0
1725,1685094930125,416.0,508.0
1726,1685094930125,462.0,434.0
1727,1685094930159,410.0,469.0
1728,1685094930159,486.0,442.0
1729,1685094930159,440.0,452.0
1730,1685094930191,465.0,440.0
1731,1685094930191,458.0,384.0
1732,1685094930191,479.0,458.0
1733,1685094930191,415.0,390.0
1734,1685094930225,479.0,431.0
1735,1685094930225,503.0,480.0
1736,1685094930225,404.0,392.0
1737,1685094930258,414.0,397.0
1738,1685094930258,434.0,436.0
1739,1685094930258,411.0,428.0
1740,1685094930258,390.0,445.0
1741,1685094930286,435.0,423.0
1742,1685094930286,405.0,500.0
1743,1685094930286,464.0,431.0
1744,1685094930325,407.0,470.0
1745,1685094930325,488.0,445.0
1746,1685094930325,457.0,443.0
1747,1685094930325,460.0,435.0
1748,1685094930352,447.0,397.0
1749,1685094930352,497.0,478.0
1750,1685094930352,415.0,390.0
1751,1685094930352,421.0,398.0
1752,1685094930392,490.0,461.0
1753,1685094930392,414.0,417.0
1754,1685094930392,372.0,390.0
1755,1685094930425,405.0,450.0
1756,1685094930425,424.0,417.0
1757,1685094930425,416.0,494.0
1758,1685094930425,485.0,437.0
1759,1685094930459,405.0,475.0
1760,1685094930459,479.0,440.0
1761,1685094930459,414.0,455.0
1762,1685094930491,468.0,426.0
1763,1685094930491,464.0,430.0
1764,1685094930491,465.0,451.0
1765,1685094930491,412.0,361.0
1766,1685094930525,486.0,452.0
1767,1685094930525,443.0,436.0
1768,1685094930525,370.0,368.0
1769,1685094930554,454.0,436.0
1770,1685094930554,432.0,440.0
1771,1685094930554,395.0,396.0
1772,1685094930554,395.0,454.0
1773,1685094930585,431.0,422.0
1774,1685094930585,401.0,481.0
1775,1685094930585,474.0,473.0
1776,1685094930625,401.0,445.0
1777,1685094930625,484.0,441.0
1778,1685094930625,428.0,446.0
1779,1685094930625,457.0,432.0
1780,1685094930648,467.0,405.0
1781,1685094930648,491.0,463.0
1782,1685094930648,417.0,361.0
1783,1685094930648,477.0,425.0
1784,1685094930693,494.0,494.0
1785,1685094930693,379.0,345.0
1786,1685094930693,418.0,416.0
1787,1685094930725,436.0,531.0
1788,1685094930725,390.0,349.0
1789,1685094930725,389.0,459.0
1790,1685094930725,439.0,344.0
1791,1685094930761,397.0,533.0
1792,1685094930761,468.0,404.0
1793,1685094930761,397.0,518.0
1794,1685094930792,485.0,455.0
1795,1685094930792,457.0,461.0
1796,1685094930792,456.0,400.0
1797,1685094930792,453.0,423.0
1798,1685094930825,504.0,476.0
1799,1685094930825,406.0,380.0
1800,1685094930825,418.0,407.0
1801,1685094930858,525.0,486.0
1802,1685094930858,388.0,335.0
1803,1685094930858,380.0,408.0
1804,1685094930858,414.0,440.0
1805,1685094930888,440.0,472.0
1806,1685094930888,364.0,408.0
1807,1685094930888,457.0,412.0
1808,1685094930925,406.0,431.0
1809,1685094930925,488.0,516.0
1810,1685094930925,411.0,462.0
1811,1685094930925,480.0,419.0
1812,1685094930956,464.0,428.0
1813,1685094930956,476.0,492.0
1814,1685094930956,446.0,365.0
1815,1685094930956,505.0,438.0
1816,1685094930994,434.0,439.0
1817,1685094930994,387.0,359.0
1818,1685094930994,471.0,484.0
1819,1685094931026,425.0,412.0
1820,1685094931026,376.0,443.0
1821,1685094931026,393.0,441.0
1822,1685094931026,422.0,348.0
1823,1685094931062,385.0,605.0
1824,1685094931062,467.0,499.0
1825,1685094931062,402.0,526.0
1826,1685094931093,505.0,507.0
1827,1685094931093,431.0,458.0
1828,1685094931093,456.0,450.0
1829,1685094931093,453.0,428.0
1830,1685094931126,472.0,419.0
1831,1685094931126,429.0,573.0
1832,1685094931126,474.0,323.0
1833,1685094931156,468.0,514.0
1834,1685094931156,372.0,384.0
1835,1685094931156,456.0,646.0
1836,1685094931156,427.0,352.0
1837,1685094931188,384.0,312.0
1838,1685094931188,381.0,468.0
1839,1685094931188,434.0,464.0
1840,1685094931226,399.0,375.0
1841,1685094931226,444.0,416.0
1842,1685094931226,378.0,576.0
1843,1685094931226,491.0,265.0
1844,1685094931254,454.0,662.0
1845,1685094931254,443.0,393.0
1846,1685094931254,443.0,358.0
1847,1685094931254,513.0,484.0
1848,1685094931291,416.0,370.0
1849,1685094931291,465.0,426.0
1850,1685094931291,509.0,483.0
1851,1685094931326,408.0,411.0
1852,1685094931326,407.0,423.0
1853,1685094931326,427.0,479.0
1854,1685094931326,409.0,372.0
1855,1685094931362,370.0,434.0
1856,1685094931362,428.0,421.0
1857,1685094931362,391.0,500.0
1858,1685094931393,468.0,460.0
1859,1685094931393,407.0,481.0
1860,1685094931393,465.0,432.0
1861,1685094931393,471.0,444.0
1862,1685094931426,466.0,448.0
1863,1685094931426,447.0,383.0
1864,1685094931426,509.0,460.0
1865,1685094931456,429.0,417.0
1866,1685094931456,434.0,381.0
1867,1685094931456,490.0,464.0
1868,1685094931456,414.0,416.0
1869,1685094931487,387.0,403.0
1870,1685094931487,393.0,426.0
1871,1685094931487,428.0,432.0
1872,1685094931526,402.0,485.0
1873,1685094931526,456.0,424.0
1874,1685094931526,393.0,478.0
1875,1685094931526,486.0,443.0
1876,1685094931556,420.0,456.0
1877,1685094931556,470.0,439.0
1878,1685094931556,462.0,409.0
1879,1685094931556,476.0,474.0
1880,1685094931596,418.0,368.0
1881,1685094931596,499.0,437.0
1882,1685094931596,451.0,445.0
1883,1685094931628,388.0,361.0
1884,1685094931628,459.0,429.0
1885,1685094931628,419.0,439.0
1886,1685094931628,370.0,394.0
1887,1685094931663,388.0,443.0
1888,1685094931663,435.0,438.0
1889,1685094931663,407.0,500.0
1890,1685094931694,452.0,430.0
1891,1685094931694,392.0,466.0
1892,1685094931694,484.0,438.0
1893,1685094931694,424.0,443.0
1894,1685094931726,461.0,433.0
1895,1685094931726,451.0,386.0
1896,1685094931726,483.0,474.0
1897,1685094931758,416.0,382.0
1898,1685094931758,486.0,426.0
1899,1685094931758,498.0,481.0
1900,1685094931758,406.0,382.0
1901,1685094931788,421.0,427.0
1902,1685094931788,429.0,440.0
1903,1685094931788,409.0,418.0
1904,1685094931826,378.0,459.0
1905,1685094931826,429.0,412.0
1906,1685094931826,405.0,487.0
1907,1685094931826,448.0,436.0
1908,1685094931852,395.0,450.0
1909,1685094931852,486.0,429.0
1910,1685094931852,456.0,453.0
1911,1685094931852,472.0,429.0
1912,1685094931896,453.0,397.0
1913,1685094931896,509.0,468.0
1914,1685094931896,419.0,397.0
1915,1685094931928,457.0,412.0
1916,1685094931928,507.0,475.0
1917,1685094931928,415.0,407.0
1918,1685094931928,385.0,382.0
1919,1685094931963,405.0,409.0
1920,1685094931963,404.0,450.0
1921,1685094931963,387.0,467.0
1922,1685094931995,440.0,425.0
1923,1685094931995,395.0,497.0
1924,1685094931995,473.0,428.0
1925,1685094931995,411.0,467.0
1926,1685094932026,488.0,455.0
1927,1685094932026,472.0,426.0
1928,1685094932026,479.0,444.0
1929,1685094932057,430.0,354.0
1930,1685094932057,508.0,478.0
1931,1685094932057,423.0,414.0
1932,1685094932057,387.0,380.0
1933,1685094932088,476.0,439.0
1934,1685094932088,422.0,424.0
1935,1685094932088,375.0,392.0
1936,1685094932127,390.0,454.0
1937,1685094932127,424.0,428.0
1938,1685094932127,393.0,490.0
1939,1685094932127,459.0,441.0
1940,1685094932151,396.0,478.0
1941,1685094932151,485.0,439.0
1942,1685094932151,432.0,450.0
1943,1685094932151,464.0,432.0
1944,1685094932196,458.0,412.0
1945,1685094932196,485.0,454.0
1946,1685094932196,407.0,367.0
1947,1685094932228,500.0,439.0
1948,1685094932228,481.0,461.0
1949,1685094932228,387.0,376.0
1950,1685094932228,442.0,415.0
1951,1685094932263,432.0,447.0
1952,1685094932263,394.0,401.0
1953,1685094932263,379.0,472.0
1954,1685094932294,429.0,426.0
1955,1685094932294,390.0,490.0
1956,1685094932294,453.0,427.0
1957,1685094932294,389.0,467.0
1958,1685094932327,480.0,431.0
1959,1685094932327,437.0,440.0
1960,1685094932327,461.0,440.0
1961,1685094932357,460.0,381.0
1962,1685094932357,510.0,484.0
1963,1685094932357,419.0,395.0
1964,1685094932357,471.0,405.0
1965,1685094932388,518.0,498.0
1966,1685094932388,401.0,395.0
1967,1685094932388,387.0,386.0
1968,1685094932427,417.0,437.0
1969,1685094932427,403.0,425.0
1970,1685094932427,374.0,464.0
1971,1685094932427,432.0,428.0
1972,1685094932451,390.0,493.0
1973,1685094932451,474.0,440.0
1974,1685094932451,407.0,459.0
1975,1685094932451,482.0,440.0
1976,1685094932498,459.0,435.0
1977,1685094932498,475.0,457.0
1978,1685094932498,441.0,373.0
1979,1685094932530,516.0,469.0
1980,1685094932530,432.0,406.0
1981,1685094932530,417.0,378.0
1982,1685094932530,491.0,451.0
1983,1685094932564,411.0,413.0
1984,1685094932564,372.0,393.0
1985,1685094932564,400.0,437.0
1986,1685094932596,418.0,425.0
1987,1685094932596,401.0,489.0
1988,1685094932596,453.0,432.0
1989,1685094932596,395.0,500.0
1990,1685094932628,487.0,445.0
1991,1685094932628,427.0,451.0
1992,1685094932628,483.0,447.0
1993,1685094932659,468.0,413.0
1994,1685094932659,483.0,459.0
1995,1685094932659,412.0,362.0
1996,1685094932659,494.0,445.0
1997,1685094932691,460.0,453.0
1998,1685094932691,384.0,368.0
1999,1685094932691,457.0,427.0
2000,1685094932727,431.0,437.0
2001,1685094932727,396.0,401.0
2002,1685094932727,391.0,453.0
2003,1685094932727,429.0,424.0
2004,1685094932754,388.0,487.0
2005,1685094932754,453.0,437.0
2006,1685094932754,394.0,470.0
2007,1685094932754,487.0,440.0
2008,1685094932797,433.0,440.0
2009,1685094932797,465.0,443.0
2010,1685094932797,459.0,396.0
2011,1685094932829,503.0,475.0
2012,1685094932829,411.0,381.0
2013,1685094932829,478.0,418.0
2014,1685094932829,505.0,483.0
2015,1685094932865,389.0,381.0
2016,1685094932865,417.0,408.0
2017,1685094932865,426.0,447.0
2018,1685094932897,396.0,426.0
2019,1685094932897,373.0,463.0
2020,1685094932897,437.0,436.0
2021,1685094932897,393.0,491.0
2022,1685094932929,462.0,432.0
2023,1685094932929,390.0,460.0
2024,1685094932929,489.0,438.0
2025,1685094932960,457.0,432.0
2026,1685094932960,459.0,450.0
2027,1685094932960,452.0,382.0
2028,1685094932960,515.0,467.0
2029,1685094932992,420.0,408.0
2030,1685094932992,440.0,381.0
2031,1685094932992,506.0,485.0
2032,1685094933027,415.0,430.0
2033,1685094933027,379.0,386.0
2034,1685094933027,395.0,439.0
2035,1685094933027,411.0,426.0
2036,1685094933057,371.0,476.0
2037,1685094933057,447.0,433.0
2038,1685094933057,402.0,492.0
2039,1685094933057,482.0,443.0
2040,1685094933098,409.0,456.0
2041,1685094933098,492.0,440.0
2042,1685094933098,462.0,414.0
2043,1685094933131,471.0,469.0
2044,1685094933131,425.0,363.0
2045,1685094933131,506.0,453.0
2046,1685094933131,447.0,434.0
2047,1685094933165,396.0,360.0
2048,1685094933165,467.0,439.0
2049,1685094933165,425.0,424.0
2050,1685094933197,374.0,400.0
2051,1685094933197,374.0,434.0
2052,1685094933197,421.0,437.0
2053,1685094933197,388.0,497.0
2054,1685094933229,454.0,434.0
2055,1685094933229,395.0,478.0
2056,1685094933229,487.0,439.0
2057,1685094933264,426.0,451.0
2058,1685094933264,467.0,431.0
2059,1685094933264,467.0,404.0
2060,1685094933264,496.0,466.0
2061,1685094933292,412.0,366.0
2062,1685094933292,493.0,425.0
2063,1685094933292,485.0,472.0
2064,1685094933328,385.0,374.0
2065,1685094933328,432.0,410.0
2066,1685094933328,425.0,446.0
2067,1685094933328,396.0,414.0
2068,1685094933355,381.0,463.0
2069,1685094933355,423.0,428.0
2070,1685094933355,393.0,495.0
2071,1685094933355,461.0,431.0
2072,1685094933399,388.0,449.0
2073,1685094933399,487.0,434.0
2074,1685094933399,449.0,442.0
2075,1685094933432,478.0,439.0
2076,1685094933432,464.0,384.0
2077,1685094933432,511.0,478.0
2078,1685094933432,418.0,383.0
2079,1685094933467,470.0,407.0
2080,1685094933467,505.0,476.0
2081,1685094933467,403.0,403.0
2082,1685094933498,397.0,401.0
2083,1685094933498,408.0,441.0
2084,1685094933498,400.0,424.0
2085,1685094933498,365.0,473.0
2086,1685094933530,433.0,425.0
2087,1685094933530,393.0,491.0
2088,1685094933530,469.0,437.0
2089,1685094933561,410.0,462.0
2090,1685094933561,490.0,437.0
2091,1685094933561,470.0,434.0
2092,1685094933561,486.0,448.0
2093,1685094933592,438.0,374.0
2094,1685094933592,516.0,465.0
2095,1685094933592,436.0,424.0
2096,1685094933629,412.0,374.0
2097,1685094933629,487.0,459.0
2098,1685094933629,411.0,424.0
2099,1685094933629,371.0,386.0
2100,1685094933655,382.0,437.0
2101,1685094933655,421.0,437.0
2102,1685094933655,378.0,489.0
2103,1685094933655,454.0,433.0
2104,1685094933700,390.0,487.0
2105,1685094933700,494.0,448.0
2106,1685094933700,421.0,449.0
2107,1685094933731,473.0,436.0
2108,1685094933731,468.0,406.0
2109,1685094933731,487.0,467.0
2110,1685094933731,409.0,363.0
2111,1685094933767,488.0,437.0
2112,1685094933767,470.0,450.0
2113,1685094933767,385.0,376.0
2114,1685094933799,442.0,418.0
2115,1685094933799,431.0,442.0
2116,1685094933799,381.0,410.0
2117,1685094933799,376.0,450.0
2118,1685094933832,425.0,441.0
2119,1685094933832,392.0,507.0
2120,1685094933832,451.0,422.0
2121,1685094933863,390.0,465.0
2122,1685094933863,488.0,443.0
2123,1685094933863,432.0,432.0
2124,1685094933863,471.0,442.0
2125,1685094933894,457.0,393.0
2126,1685094933894,507.0,470.0
2127,1685094933894,412.0,378.0
2128,1685094933929,484.0,425.0
2129,1685094933929,517.0,490.0
2130,1685094933929,392.0,378.0
2131,1685094933929,403.0,394.0
2132,1685094933957,421.0,451.0
2133,1685094933957,398.0,416.0
2134,1685094933957,361.0,457.0
2135,1685094933957,426.0,430.0
2136,1685094934003,392.0,490.0
2137,1685094934003,462.0,430.0
2138,1685094934003,400.0,462.0
2139,1685094934029,483.0,434.0
2140,1685094934029,470.0,443.0
2141,1685094934029,483.0,448.0
2142,1685094934029,444.0,381.0
2143,1685094934067,527.0,473.0
2144,1685094934067,424.0,410.0
2145,1685094934067,434.0,383.0
2146,1685094934098,506.0,476.0
2147,1685094934098,400.0,412.0
2148,1685094934098,368.0,384.0
2149,1685094934098,394.0,439.0
2150,1685094934130,403.0,427.0
2151,1685094934130,372.0,479.0
2152,1685094934130,452.0,438.0
2153,1685094934162,395.0,488.0
2154,1685094934162,486.0,444.0
2155,1685094934162,427.0,461.0
2156,1685094934162,483.0,439.0
2157,1685094934193,474.0,420.0
2158,1685094934193,489.0,459.0
2159,1685094934193,421.0,359.0
2160,1685094934229,508.0,454.0
2161,1685094934229,452.0,436.0
2162,1685094934229,376.0,365.0
2163,1685094934229,466.0,438.0
2164,1685094934259,420.0,433.0
2165,1685094934259,372.0,394.0
2166,1685094934259,373.0,444.0
2167,1685094934259,431.0,433.0
2168,1685094934301,394.0,499.0
2169,1685094934301,456.0,424.0
2170,1685094934301,395.0,484.0
2171,1685094934333,480.0,436.0
2172,1685094934333,424.0,439.0
2173,1685094934333,466.0,432.0
2174,1685094934333,458.0,393.0
2175,1685094934368,500.0,464.0
2176,1685094934368,409.0,382.0
2177,1685094934368,494.0,429.0
2178,1685094934400,505.0,485.0
2179,1685094934400,383.0,373.0
2180,1685094934400,417.0,408.0
2181,1685094934400,429.0,443.0
2182,1685094934431,395.0,414.0
2183,1685094934431,369.0,457.0
2184,1685094934431,432.0,437.0
2185,1685094934466,378.0,485.0
2186,1685094934466,465.0,432.0
2187,1685094934466,394.0,463.0
2188,1685094934466,480.0,430.0
2189,1685094934495,457.0,449.0
2190,1685094934495,476.0,446.0
2191,1685094934495,457.0,381.0
2192,1685094934530,526.0,484.0
2193,1685094934530,416.0,396.0
2194,1685094934530,453.0,399.0
2195,1685094934530,522.0,492.0
2196,1685094934560,408.0,408.0
2197,1685094934560,375.0,387.0
2198,1685094934560,397.0,444.0
2199,1685094934560,411.0,428.0
2200,1685094934604,381.0,472.0
2201,1685094934604,448.0,429.0
2202,1685094934604,388.0,495.0
2203,1685094934630,470.0,434.0
2204,1685094934630,411.0,466.0
2205,1685094934630,494.0,439.0
2206,1685094934630,473.0,424.0
2207,1685094934669,483.0,462.0
2208,1685094934669,432.0,362.0
2209,1685094934669,515.0,470.0
2210,1685094934700,439.0,423.0
2211,1685094934700,398.0,376.0
2212,1685094934700,483.0,450.0
2213,1685094934700,418.0,437.0
2214,1685094934734,368.0,384.0
2215,1685094934734,375.0,439.0
2216,1685094934734,421.0,430.0
2217,1685094934767,381.0,489.0
2218,1685094934767,458.0,433.0
2219,1685094934767,400.0,496.0
2220,1685094934767,489.0,435.0
2221,1685094934796,426.0,445.0
2222,1685094934796,473.0,440.0
2223,1685094934796,465.0,409.0
2224,1685094934833,495.0,458.0
2225,1685094934833,412.0,374.0
2226,1685094934833,497.0,443.0
2227,1685094934833,483.0,461.0
2228,1685094934859,380.0,370.0
2229,1685094934859,436.0,410.0
2230,1685094934859,426.0,445.0
2231,1685094934859,390.0,412.0
2232,1685094934902,382.0,466.0
2233,1685094934902,429.0,428.0
2234,1685094934902,395.0,495.0
2235,1685094934934,464.0,430.0
2236,1685094934934,390.0,467.0
2237,1685094934934,489.0,439.0
2238,1685094934934,440.0,449.0
2239,1685094934970,467.0,440.0
2240,1685094934970,466.0,396.0
2241,1685094934970,515.0,481.0
2242,1685094935002,411.0,377.0
2243,1685094935002,475.0,413.0
2244,1685094935002,523.0,487.0
2245,1685094935002,392.0,394.0
2246,1685094935033,398.0,399.0
2247,1685094935033,422.0,442.0
2248,1685094935033,408.0,424.0
2249,1685094935065,365.0,470.0
2250,1685094935065,431.0,425.0
2251,1685094935065,387.0,493.0
2252,1685094935065,462.0,436.0
2253,1685094935097,396.0,461.0
2254,1685094935097,493.0,451.0
2255,1685094935097,469.0,432.0
2256,1685094935131,481.0,454.0
2257,1685094935131,446.0,372.0
2258,1685094935131,520.0,468.0
2259,1685094935131,433.0,422.0
2260,1685094935161,419.0,378.0
2261,1685094935161,505.0,470.0
2262,1685094935161,418.0,416.0
2263,1685094935161,376.0,389.0
2264,1685094935203,388.0,432.0
2265,1685094935203,408.0,421.0
2266,1685094935203,376.0,479.0
2267,1685094935236,453.0,445.0
2268,1685094935236,388.0,479.0
2269,1685094935236,488.0,453.0
2270,1685094935236,426.0,457.0
2271,1685094935270,477.0,431.0
2272,1685094935270,466.0,416.0
2273,1685094935270,492.0,466.0
2274,1685094935303,422.0,363.0
2275,1685094935303,503.0,452.0
2276,1685094935303,461.0,429.0
2277,1685094935303,374.0,370.0
2278,1685094935334,453.0,425.0
2279,1685094935334,423.0,431.0
2280,1685094935334,375.0,401.0
2281,1685094935365,376.0,449.0
2282,1685094935365,430.0,442.0
2283,1685094935365,393.0,487.0
2284,1685094935365,456.0,427.0
2285,1685094935397,388.0,471.0
2286,1685094935397,488.0,437.0
2287,1685094935397,431.0,447.0
2288,1685094935431,467.0,428.0
2289,1685094935431,465.0,403.0
2290,1685094935431,507.0,473.0
2291,1685094935431,411.0,367.0
2292,1685094935460,488.0,427.0
2293,1685094935460,504.0,477.0
2294,1685094935460,391.0,384.0
2295,1685094935460,409.0,400.0
2296,1685094935504,424.0,446.0
2297,1685094935504,401.0,412.0
2298,1685094935504,376.0,464.0
2299,1685094935535,435.0,432.0
2300,1685094935535,393.0,503.0
2301,1685094935535,458.0,424.0
2302,1685094935535,395.0,467.0
2303,1685094935572,490.0,436.0
2304,1685094935572,459.0,447.0
2305,1685094935572,480.0,455.0
2306,1685094935603,439.0,375.0
2307,1685094935603,519.0,475.0
2308,1685094935603,426.0,398.0
2309,1685094935603,443.0,403.0
2310,1685094935635,522.0,475.0
2311,1685094935635,402.0,405.0
2312,1685094935635,378.0,390.0
2313,1685094935670,396.0,438.0
2314,1685094935670,402.0,413.0
2315,1685094935670,367.0,474.0
2316,1685094935670,450.0,439.0
2317,1685094935698,393.0,490.0
2318,1685094935698,483.0,445.0
2319,1685094935698,405.0,456.0
2320,1685094935733,477.0,438.0
2321,1685094935733,467.0,430.0
2322,1685094935733,482.0,455.0
2323,1685094935733,425.0,358.0
2324,1685094935764,509.0,458.0
2325,1685094935764,447.0,428.0
2326,1685094935764,395.0,363.0
2327,1685094935764,476.0,446.0
2328,1685094935804,416.0,424.0
2329,1685094935804,376.0,395.0
2330,1685094935804,376.0,437.0
2331,1685094935836,427.0,442.0
2332,1685094935836,390.0,487.0
2333,1685094935836,447.0,430.0
2334,1685094935836,393.0,479.0
2335,1685094935871,491.0,439.0
2336,1685094935871,430.0,451.0
2337,1685094935871,463.0,435.0
2338,1685094935903,461.0,405.0
2339,1685094935903,498.0,471.0
2340,1685094935903,407.0,371.0
2341,1685094935903,494.0,429.0
2342,1685094935934,495.0,473.0
2343,1685094935934,389.0,377.0
2344,1685094935934,426.0,398.0
2345,1685094935966,429.0,445.0
2346,1685094935966,403.0,410.0
2347,1685094935966,366.0,451.0
2348,1685094935966,428.0,431.0
2349,1685094935998,391.0,495.0
2350,1685094935998,460.0,430.0
2351,1685094935998,388.0,471.0
2352,1685094936034,486.0,435.0
2353,1685094936034,452.0,444.0
2354,1685094936034,478.0,455.0
2355,1685094936034,466.0,383.0
2356,1685094936060,514.0,481.0
2357,1685094936060,419.0,390.0
2358,1685094936060,472.0,405.0
2359,1685094936060,519.0,484.0
2360,1685094936106,404.0,400.0
2361,1685094936106,392.0,389.0
2362,1685094936106,404.0,445.0
2363,1685094936137,410.0,427.0
2364,1685094936137,366.0,472.0
2365,1685094936137,435.0,426.0
2366,1685094936137,392.0,494.0
2367,1685094936172,470.0,428.0
2368,1685094936172,411.0,467.0
2369,1685094936172,494.0,442.0
2370,1685094936203,473.0,428.0
2371,1685094936203,485.0,460.0
2372,1685094936203,444.0,364.0
2373,1685094936203,520.0,464.0
2374,1685094936235,435.0,424.0
2375,1685094936235,414.0,381.0
2376,1685094936235,481.0,451.0
2377,1685094936268,414.0,423.0
2378,1685094936268,370.0,388.0
2379,1685094936268,381.0,441.0
2380,1685094936268,420.0,437.0
2381,1685094936298,382.0,487.0
2382,1685094936298,449.0,436.0
2383,1685094936298,401.0,488.0
2384,1685094936334,487.0,442.0
2385,1685094936334,424.0,444.0
2386,1685094936334,472.0,438.0
2387,1685094936334,469.0,402.0
2388,1685094936361,485.0,464.0
2389,1685094936361,422.0,365.0
2390,1685094936361,503.0,447.0
2391,1685094936361,462.0,455.0
2392,1685094936406,373.0,368.0
2393,1685094936406,449.0,424.0
2394,1685094936406,420.0,440.0
2395,1685094936437,386.0,408.0
2396,1685094936437,378.0,450.0
2397,1685094936437,427.0,426.0
2398,1685094936437,391.0,504.0
2399,1685094936473,454.0,427.0
2400,1685094936473,393.0,465.0
2401,1685094936473,485.0,442.0
2402,1685094936504,444.0,440.0
2403,1685094936504,461.0,442.0
2404,1685094936504,469.0,394.0
2405,1685094936504,511.0,476.0
2406,1685094936538,417.0,380.0
2407,1685094936538,476.0,416.0
2408,1685094936538,515.0,498.0
2409,1685094936571,394.0,390.0
2410,1685094936571,396.0,399.0
2411,1685094936571,418.0,451.0
2412,1685094936571,401.0,417.0
2413,1685094936599,369.0,473.0
2414,1685094936599,429.0,423.0
2415,1685094936599,389.0,499.0
2416,1685094936634,465.0,429.0
2417,1685094936634,403.0,458.0
2418,1685094936634,481.0,445.0
2419,1685094936634,472.0,435.0
2420,1685094936662,478.0,455.0
2421,1685094936662,458.0,368.0
2422,1685094936662,517.0,471.0
2423,1685094936662,427.0,405.0
2424,1685094936706,431.0,379.0
2425,1685094936706,497.0,469.0
2426,1685094936706,414.0,425.0
2427,1685094936738,366.0,384.0
2428,1685094936738,393.0,445.0
2429,1685094936738,412.0,429.0
2430,1685094936738,381.0,501.0
2431,1685094936773,447.0,431.0
2432,1685094936773,394.0,488.0
2433,1685094936773,478.0,438.0
2434,1685094936804,415.0,450.0
2435,1685094936804,470.0,430.0
2436,1685094936804,471.0,399.0
2437,1685094936804,477.0,458.0
2438,1685094936837,431.0,353.0
2439,1685094936837,504.0,455.0
2440,1685094936837,449.0,453.0
2441,1685094936868,402.0,356.0
2442,1685094936868,459.0,440.0
2443,1685094936868,437.0,437.0
2444,1685094936868,384.0,402.0
2445,1685094936903,385.0,450.0
2446,1685094936903,427.0,432.0
2447,1685094936903,391.0,510.0
2448,1685094936934,449.0,423.0
2449,1685094936934,395.0,479.0
2450,1685094936934,482.0,447.0
2451,1685094936934,429.0,438.0
2452,1685094936963,455.0,441.0
2453,1685094936963,463.0,385.0
2454,1685094936963,487.0,478.0
2455,1685094936963,408.0,362.0
2456,1685094937006,493.0,425.0
2457,1685094937006,491.0,479.0
2458,1685094937006,405.0,382.0
2459,1685094937038,427.0,403.0
2460,1685094937038,443.0,459.0
2461,1685094937038,413.0,414.0
2462,1685094937038,394.0,474.0
2463,1685094937073,441.0,427.0
2464,1685094937073,389.0,496.0
2465,1685094937073,457.0,434.0
2466,1685094937104,397.0,458.0
2467,1685094937104,469.0,447.0
2468,1685094937104,455.0,438.0
2469,1685094937104,449.0,443.0
2470,1685094937136,451.0,381.0
2471,1685094937136,485.0,465.0
2472,1685094937136,408.0,394.0
2473,1685094937167,460.0,387.0
2474,1685094937167,500.0,494.0
2475,1685094937167,428.0,409.0
2476,1685094937167,397.0,386.0
2477,1685094937206,428.0,452.0
2478,1685094937206,428.0,433.0
2479,1685094937206,392.0,484.0
2480,1685094937235,454.0,429.0
2481,1685094937235,395.0,505.0
2482,1685094937235,468.0,435.0
2483,1685094937235,406.0,460.0
2484,1685094937273,454.0,430.0
2485,1685094937273,463.0,439.0
2486,1685094937273,452.0,437.0
2487,1685094937273,422.0,357.0
2488,1685094937307,499.0,463.0
2489,1685094937307,429.0,435.0
2490,1685094937307,417.0,360.0
2491,1685094937339,469.0,461.0
2492,1685094937339,442.0,422.0
2493,1685094937339,398.0,400.0
2494,1685094937339,407.0,450.0
2495,1685094937374,437.0,438.0
2496,1685094937374,401.0,502.0
2497,1685094937374,462.0,436.0
2498,1685094937407,401.0,487.0
2499,1685094937407,477.0,448.0
2500,1685094937407,417.0,446.0
2501,1685094937407,442.0,432.0
2502,1685094937439,463.0,404.0
2503,1685094937439,464.0,462.0
2504,1685094937439,412.0,354.0
2505,1685094937471,489.0,433.0
2506,1685094937471,457.0,461.0
2507,1685094937471,404.0,368.0
2508,1685094937471,436.0,403.0
2509,1685094937500,452.0,455.0
2510,1685094937500,409.0,411.0
2511,1685094937500,399.0,465.0
2512,1685094937536,449.0,438.0
2513,1685094937536,398.0,498.0
2514,1685094937536,451.0,432.0
2515,1685094937536,391.0,478.0
2516,1685094937564,459.0,432.0
2517,1685094937564,437.0,435.0
2518,1685094937564,439.0,445.0
2519,1685094937564,457.0,368.0
2520,1685094937608,473.0,477.0
2521,1685094937608,405.0,378.0
2522,1685094937608,469.0,398.0
2523,1685094937640,494.0,494.0
2524,1685094937640,426.0,403.0
2525,1685094937640,409.0,392.0
2526,1685094937640,440.0,460.0
2527,1685094937676,421.0,426.0
2528,1685094937676,394.0,477.0
2529,1685094937676,449.0,437.0
2530,1685094937707,408.0,515.0
2531,1685094937707,458.0,431.0
2532,1685094937707,406.0,455.0
2533,1685094937707,465.0,439.0
2534,1685094937740,460.0,426.0
2535,1685094937740,442.0,447.0
2536,1685094937740,442.0,357.0
2537,1685094937770,490.0,454.0
2538,1685094937770,421.0,413.0
2539,1685094937770,435.0,368.0
2540,1685094937770,476.0,467.0
2541,1685094937802,441.0,432.0
2542,1685094937802,394.0,380.0
2543,1685094937802,417.0,458.0
2544,1685094937836,428.0,423.0
2545,1685094937836,397.0,500.0
2546,1685094937836,453.0,432.0
2547,1685094937836,404.0,495.0
2548,1685094937865,468.0,447.0
2549,1685094937865,417.0,449.0
2550,1685094937865,450.0,438.0
2551,1685094937865,462.0,396.0
2552,1685094937909,456.0,461.0
2553,1685094937909,420.0,346.0
2554,1685094937909,496.0,444.0
2555,1685094937941,442.0,458.0
2556,1685094937941,409.0,357.0
2557,1685094937941,450.0,433.0
2558,1685094937941,451.0,437.0
2559,1685094937976,381.0,399.0
2560,1685094937976,404.0,467.0
2561,1685094937976,437.0,441.0
2562,1685094938008,392.0,501.0
2563,1685094938008,447.0,431.0
2564,1685094938008,393.0,471.0
2565,1685094938008,464.0,435.0
2566,1685094938041,431.0,437.0
2567,1685094938041,443.0,436.0
2568,1685094938041,461.0,374.0
2569,1685094938075,478.0,465.0
2570,1685094938075,407.0,367.0
2571,1685094938075,490.0,415.0
2572,1685094938075,487.0,489.0
2573,1685094938101,412.0,389.0
2574,1685094938101,415.0,411.0
2575,1685094938101,438.0,439.0
2576,1685094938136,405.0,428.0
2577,1685094938136,385.0,465.0
2578,1685094938136,430.0,432.0
2579,1685094938136,400.0,515.0
2580,1685094938168,456.0,436.0
2581,1685094938168,398.0,468.0
2582,1685094938168,468.0,444.0
2583,1685094938168,458.0,425.0
2584,1685094938209,454.0,457.0
2585,1685094938209,453.0,364.0
2586,1685094938209,488.0,462.0
2587,1685094938240,414.0,402.0
2588,1685094938240,457.0,387.0
2589,1685094938240,482.0,477.0
2590,1685094938240,432.0,415.0
2591,1685094938277,387.0,374.0
2592,1685094938277,419.0,459.0
2593,1685094938277,416.0,432.0
2594,1685094938308,384.0,492.0
2595,1685094938308,445.0,437.0
2596,1685094938308,402.0,502.0
2597,1685094938308,459.0,436.0
2598,1685094938340,420.0,457.0
2599,1685094938340,464.0,437.0
2600,1685094938340,465.0,406.0
2601,1685094938372,463.0,461.0
2602,1685094938372,425.0,349.0
2603,1685094938372,502.0,449.0
2604,1685094938372,433.0,439.0
2605,1685094938403,409.0,356.0
2606,1685094938403,458.0,450.0
2607,1685094938403,438.0,435.0
2608,1685094938436,383.0,399.0
2609,1685094938436,402.0,464.0
2610,1685094938436,439.0,435.0
2611,1685094938436,402.0,514.0
2612,1685094938466,448.0,432.0
2613,1685094938466,388.0,478.0
2614,1685094938466,478.0,439.0
2615,1685094938466,428.0,437.0
2616,1685094938510,451.0,429.0
2617,1685094938510,466.0,385.0
2618,1685094938510,477.0,472.0
2619,1685094938542,420.0,353.0
2620,1685094938542,492.0,426.0
2621,1685094938542,473.0,474.0
2622,1685094938542,409.0,377.0
2623,1685094938577,423.0,412.0
2624,1685094938577,440.0,455.0
2625,1685094938577,403.0,417.0
2626,1685094938608,384.0,458.0
2627,1685094938608,432.0,431.0
2628,1685094938608,391.0,511.0
2629,1685094938608,448.0,427.0
2630,1685094938639,397.0,479.0
2631,1685094938639,475.0,431.0
2632,1685094938639,457.0,437.0
2633,1685094938672,457.0,446.0
2634,1685094938672,465.0,368.0
2635,1685094938672,499.0,468.0
2636,1685094938672,415.0,388.0
2637,1685094938702,469.0,384.0
2638,1685094938702,498.0,499.0
2639,1685094938702,414.0,389.0
2640,1685094938736,384.0,394.0
2641,1685094938736,421.0,448.0
2642,1685094938736,414.0,434.0
2643,1685094938736,380.0,495.0
2644,1685094938765,436.0,435.0
2645,1685094938765,393.0,502.0
2646,1685094938765,469.0,446.0
2647,1685094938765,418.0,471.0
2648,1685094938811,474.0,436.0
2649,1685094938811,476.0,413.0
2650,1685094938811,469.0,460.0
2651,1685094938842,439.0,345.0
2652,1685094938842,510.0,456.0
2653,1685094938842,426.0,423.0
2654,1685094938842,416.0,355.0
2655,1685094938877,469.0,464.0
2656,1685094938877,432.0,425.0
2657,1685094938877,373.0,391.0
2658,1685094938910,403.0,462.0
2659,1685094938910,422.0,432.0
2660,1685094938910,387.0,513.0
2661,1685094938910,448.0,441.0
2662,1685094938941,392.0,482.0
2663,1685094938941,473.0,441.0
2664,1685094938941,425.0,444.0
2665,1685094938972,459.0,430.0
2666,1685094938972,463.0,387.0
2667,1685094938972,479.0,474.0
2668,1685094938972,420.0,351.0
2669,1685094939004,499.0,436.0
2670,1685094939004,457.0,455.0
2671,1685094939004,399.0,364.0
2672,1685094939037,433.0,410.0
2673,1685094939037,445.0,446.0
2674,1685094939037,387.0,412.0
2675,1685094939037,377.0,456.0
2676,1685094939068,427.0,436.0
2677,1685094939068,377.0,510.0
2678,1685094939068,452.0,431.0
2679,1685094939068,396.0,479.0
2680,1685094939111,475.0,430.0
2681,1685094939111,444.0,444.0
2682,1685094939111,462.0,438.0
2683,1685094939143,468.0,372.0
2684,1685094939143,501.0,480.0
2685,1685094939143,413.0,381.0
2686,1685094939143,479.0,408.0
2687,1685094939178,498.0,493.0
2688,1685094939178,403.0,385.0
2689,1685094939178,400.0,399.0
2690,1685094939209,424.0,454.0
2691,1685094939209,404.0,423.0
2692,1685094939209,388.0,494.0
2693,1685094939209,431.0,429.0
2694,1685094939241,391.0,505.0
2695,1685094939241,463.0,436.0
2696,1685094939241,399.0,463.0
2697,1685094939272,477.0,441.0
2698,1685094939272,467.0,422.0
2699,1685094939272,467.0,455.0
2700,1685094939272,447.0,347.0
2701,1685094939304,506.0,466.0
2702,1685094939304,424.0,401.0
2703,1685094939304,435.0,371.0
2704,1685094939337,482.0,464.0
2705,1685094939337,429.0,424.0
2706,1685094939337,382.0,399.0
2707,1685094939337,404.0,443.0
2708,1685094939368,417.0,439.0
2709,1685094939368,382.0,500.0
2710,1685094939368,448.0,432.0
2711,1685094939368,396.0,500.0
2712,1685094939412,475.0,435.0
2713,1685094939412,413.0,448.0
2714,1685094939412,468.0,436.0
2715,1685094939443,473.0,402.0
2716,1685094939443,473.0,461.0
2717,1685094939443,428.0,355.0
2718,1685094939443,509.0,445.0
2719,1685094939479,453.0,461.0
2720,1685094939479,399.0,358.0
2721,1685094939479,448.0,425.0
2722,1685094939510,436.0,446.0
2723,1685094939510,382.0,400.0
2724,1685094939510,376.0,455.0
2725,1685094939510,428.0,436.0
2726,1685094939544,390.0,504.0
2727,1685094939544,453.0,438.0
2728,1685094939544,393.0,477.0
2729,1685094939574,475.0,439.0
2730,1685094939574,436.0,447.0
2731,1685094939574,463.0,433.0
2732,1685094939574,475.0,396.0
2733,1685094939605,504.0,474.0
2734,1685094939605,421.0,366.0
2735,1685094939605,481.0,402.0
2736,1685094939638,502.0,485.0
2737,1685094939638,408.0,386.0
2738,1685094939638,407.0,397.0
2739,1685094939638,426.0,441.0
2740,1685094939668,396.0,429.0
2741,1685094939668,367.0,469.0
2742,1685094939668,434.0,435.0
2743,1685094939668,390.0,507.0
2744,1685094939713,456.0,425.0
2745,1685094939713,395.0,465.0
2746,1685094939713,477.0,444.0
2747,1685094939744,455.0,420.0
2748,1685094939744,467.0,444.0
2749,1685094939744,453.0,362.0
2750,1685094939744,506.0,476.0
2751,1685094939779,419.0,384.0
2752,1685094939779,455.0,391.0
2753,1685094939779,499.0,483.0
2754,1685094939812,419.0,416.0
2755,1685094939812,382.0,395.0
2756,1685094939812,405.0,448.0
2757,1685094939812,407.0,428.0
2758,1685094939843,369.0,486.0
2759,1685094939843,444.0,434.0
2760,1685094939843,391.0,503.0
2761,1685094939874,469.0,431.0
2762,1685094939874,412.0,460.0
2763,1685094939874,477.0,431.0
2764,1685094939874,480.0,419.0
2765,1685094939906,468.0,452.0
2766,1685094939906,440.0,360.0
2767,1685094939906,509.0,458.0
2768,1685094939938,446.0,430.0
2769,1685094939938,410.0,363.0
2770,1685094939938,471.0,442.0
2771,1685094939938,427.0,425.0
2772,1685094939969,378.0,388.0
2773,1685094939969,398.0,459.0
2774,1685094939969,416.0,433.0
2775,1685094939969,385.0,500.0
2776,1685094940013,444.0,433.0
2777,1685094940013,387.0,482.0
2778,1685094940013,473.0,442.0
2779,1685094940044,431.0,448.0
2780,1685094940044,464.0,436.0
2781,1685094940044,463.0,396.0
2782,1685094940044,490.0,466.0
2783,1685094940080,417.0,361.0
2784,1685094940080,497.0,429.0
2785,1685094940080,481.0,471.0
2786,1685094940111,392.0,368.0
2787,1685094940111,437.0,422.0
2788,1685094940111,434.0,446.0
2789,1685094940111,386.0,410.0
2790,1685094940143,384.0,453.0
2791,1685094940143,422.0,437.0
2792,1685094940143,387.0,497.0
2793,1685094940174,444.0,431.0
2794,1685094940174,389.0,464.0
2795,1685094940174,474.0,438.0
2796,1685094940174,448.0,445.0
2797,1685094940212,466.0,440.0
2798,1685094940212,462.0,387.0
2799,1685094940212,507.0,478.0
2800,1685094940244,425.0,390.0
2801,1685094940244,477.0,406.0
2802,1685094940244,510.0,481.0
2803,1685094940244,414.0,405.0
2804,1685094940269,394.0,392.0
2805,1685094940269,414.0,443.0
2806,1685094940269,403.0,431.0
2807,1685094940269,375.0,464.0
2808,1685094940314,427.0,435.0
2809,1685094940314,389.0,497.0
2810,1685094940314,465.0,437.0
2811,1685094940346,410.0,466.0
2812,1685094940346,480.0,440.0
2813,1685094940346,469.0,433.0
2814,1685094940346,486.0,463.0
2815,1685094940381,440.0,355.0
2816,1685094940381,513.0,454.0
2817,1685094940381,436.0,414.0
2818,1685094940412,416.0,375.0
2819,1685094940412,481.0,445.0
2820,1685094940412,419.0,425.0
2821,1685094940412,376.0,394.0
2822,1685094940445,387.0,442.0
2823,1685094940445,421.0,432.0
2824,1685094940445,382.0,498.0
2825,1685094940475,438.0,431.0
2826,1685094940475,393.0,484.0
2827,1685094940475,481.0,439.0
2828,1685094940475,417.0,451.0
2829,1685094940507,468.0,431.0
2830,1685094940507,471.0,408.0
2831,1685094940507,483.0,461.0
2832,1685094940539,428.0,363.0
2833,1685094940539,500.0,441.0
2834,1685094940539,470.0,455.0
2835,1685094940539,395.0,367.0
2836,1685094940570,450.0,432.0
2837,1685094940570,434.0,441.0
2838,1685094940570,388.0,402.0
2839,1685094940570,375.0,457.0
2840,1685094940615,418.0,428.0
2841,1685094940615,390.0,500.0
2842,1685094940615,446.0,418.0
2843,1685094940647,391.0,475.0
2844,1685094940647,477.0,444.0
2845,1685094940647,442.0,445.0
2846,1685094940647,470.0,438.0
2847,1685094940681,467.0,386.0
2848,1685094940681,504.0,483.0
2849,1685094940681,424.0,378.0
2850,1685094940713,486.0,406.0
2851,1685094940713,510.0,483.0
2852,1685094940713,401.0,389.0
2853,1685094940713,398.0,395.0
2854,1685094940744,416.0,448.0
2855,1685094940744,387.0,418.0
2856,1685094940744,367.0,467.0
2857,1685094940777,421.0,427.0
2858,1685094940777,386.0,495.0
2859,1685094940777,463.0,443.0
2860,1685094940777,400.0,463.0
2861,1685094940807,483.0,433.0
2862,1685094940807,463.0,432.0
2863,1685094940807,479.0,461.0
2864,1685094940839,445.0,368.0
2865,1685094940839,515.0,468.0
2866,1685094940839,435.0,409.0
2867,1685094940839,441.0,380.0
2868,1685094940870,500.0,479.0
2869,1685094940870,410.0,400.0
2870,1685094940870,368.0,386.0
2871,1685094940870,403.0,449.0
2872,1685094940916,408.0,434.0
2873,1685094940916,382.0,499.0
2874,1685094940916,439.0,437.0
2875,1685094940948,390.0,486.0
2876,1685094940948,474.0,444.0
2877,1685094940948,417.0,451.0
2878,1685094940948,477.0,430.0
2879,1685094940982,475.0,423.0
2880,1685094940982,480.0,455.0
2881,1685094940982,428.0,366.0
2882,1685094941014,516.0,448.0
2883,1685094941014,461.0,455.0
2884,1685094941014,394.0,362.0
2885,1685094941014,466.0,434.0
2886,1685094941046,433.0,446.0
2887,1685094941046,374.0,394.0
2888,1685094941046,372.0,453.0
2889,1685094941077,414.0,429.0
2890,1685094941077,386.0,497.0
2891,1685094941077,443.0,433.0
2892,1685094941077,387.0,474.0
2893,1685094941108,482.0,443.0
2894,1685094941108,439.0,452.0
2895,1685094941108,476.0,439.0
2896,1685094941140,468.0,384.0
2897,1685094941140,506.0,472.0
2898,1685094941140,412.0,366.0
2899,1685094941140,498.0,418.0
2900,1685094941171,496.0,482.0
2901,1685094941171,390.0,378.0
2902,1685094941171,415.0,406.0
2903,1685094941171,421.0,449.0
2904,1685094941216,388.0,413.0
2905,1685094941216,370.0,470.0
2906,1685094941216,412.0,427.0
2907,1685094941248,385.0,498.0
2908,1685094941248,456.0,435.0
2909,1685094941248,392.0,462.0
2910,1685094941248,481.0,440.0
2911,1685094941282,456.0,434.0
2912,1685094941282,471.0,446.0
2913,1685094941282,459.0,375.0
2914,1685094941313,517.0,473.0
2915,1685094941313,429.0,400.0
2916,1685094941313,452.0,393.0
2917,1685094941313,512.0,488.0
2918,1685094941346,409.0,410.0
2919,1685094941346,379.0,387.0
2920,1685094941346,401.0,446.0
2921,1685094941378,412.0,432.0
2922,1685094941378,374.0,481.0
2923,1685094941378,436.0,429.0
2924,1685094941378,389.0,493.0
2925,1685094941408,466.0,434.0
2926,1685094941408,406.0,464.0
2927,1685094941408,478.0,438.0
2928,1685094941441,468.0,417.0
2929,1685094941441,482.0,456.0
2930,1685094941441,439.0,363.0
2931,1685094941441,518.0,463.0
2932,1685094941471,450.0,433.0
2933,1685094941471,411.0,369.0
2934,1685094941471,478.0,445.0
2935,1685094941471,421.0,422.0
2936,1685094941516,380.0,398.0
2937,1685094941516,388.0,448.0
2938,1685094941516,405.0,426.0
2939,1685094941548,382.0,503.0
2940,1685094941548,442.0,434.0
2941,1685094941548,385.0,472.0
2942,1685094941548,485.0,451.0
2943,1685094941584,438.0,458.0
2944,1685094941584,475.0,441.0
2945,1685094941584,478.0,414.0
2946,1685094941615,503.0,473.0
2947,1685094941615,423.0,368.0
2948,1685094941615,505.0,430.0
2949,1685094941615,495.0,464.0
2950,1685094941647,392.0,352.0
2951,1685094941647,432.0,405.0
2952,1685094941647,436.0,443.0
2953,1685094941678,382.0,421.0
2954,1685094941678,372.0,460.0
2955,1685094941678,413.0,428.0
2956,1685094941678,386.0,502.0
2957,1685094941710,450.0,430.0
2958,1685094941710,397.0,462.0
2959,1685094941710,490.0,436.0
2960,1685094941742,447.0,448.0
2961,1685094941742,473.0,442.0
2962,1685094941742,466.0,389.0
2963,1685094941742,519.0,471.0
2964,1685094941773,417.0,384.0
2965,1685094941773,463.0,394.0
2966,1685094941773,517.0,490.0
2967,1685094941773,403.0,393.0
2968,1685094941817,391.0,393.0
2969,1685094941817,414.0,443.0
2970,1685094941817,399.0,427.0
2971,1685094941848,375.0,475.0
2972,1685094941848,429.0,445.0
2973,1685094941848,393.0,475.0
2974,1685094941848,460.0,441.0
2975,1685094941886,395.0,450.0
2976,1685094941886,479.0,431.0
2977,1685094941886,457.0,424.0
2978,1685094941903,478.0,452.0
2979,1685094941903,441.0,373.0
2980,1685094941903,520.0,460.0
2981,1685094941903,441.0,429.0
2982,1685094941950,419.0,375.0
2983,1685094941950,490.0,457.0
2984,1685094941950,414.0,445.0
2985,1685094941981,374.0,381.0
2986,1685094941981,386.0,449.0
2987,1685094941981,407.0,428.0
2988,1685094941981,375.0,492.0
2989,1685094942012,442.0,437.0
2990,1685094942012,387.0,482.0
2991,1685094942012,465.0,417.0
2992,1685094942046,419.0,453.0
2993,1685094942046,473.0,436.0
2994,1685094942046,471.0,414.0
2995,1685094942046,495.0,465.0
2996,1685094942076,427.0,365.0
2997,1685094942076,515.0,440.0
2998,1685094942076,467.0,456.0
2999,1685094942076,385.0,361.0
3000,1685094942119,445.0,415.0
3001,1685094942119,422.0,446.0
3002,1685094942119,371.0,396.0
3003,1685094942141,368.0,460.0
3004,1685094942141,415.0,429.0
3005,1685094942141,375.0,490.0
3006,1685094942141,448.0,437.0
3007,1685094942184,389.0,470.0
3008,1685094942184,495.0,445.0
3009,1685094942184,450.0,443.0
3010,1685094942216,480.0,449.0
3011,1685094942216,474.0,390.0
3012,1685094942216,511.0,481.0
3013,1685094942216,420.0,363.0
3014,1685094942250,487.0,425.0
3015,1685094942250,510.0,483.0
3016,1685094942250,396.0,383.0
3017,1685094942282,402.0,405.0
3018,1685094942282,412.0,443.0
3019,1685094942282,386.0,421.0
3020,1685094942282,361.0,455.0
3021,1685094942311,433.0,440.0
3022,1685094942311,386.0,492.0
3023,1685094942311,465.0,442.0
3024,1685094942343,401.0,460.0
3025,1685094942343,485.0,440.0
3026,1685094942343,467.0,433.0
3027,1685094942343,479.0,445.0
3028,1685094942376,450.0,369.0
3029,1685094942376,520.0,470.0
3030,1685094942376,427.0,415.0
3031,1685094942376,440.0,382.0
3032,1685094942419,501.0,461.0
3033,1685094942419,420.0,415.0
3034,1685094942419,369.0,389.0
3035,1685094942451,392.0,453.0
3036,1685094942451,411.0,437.0
3037,1685094942451,369.0,487.0
3038,1685094942451,443.0,434.0
3039,1685094942486,394.0,495.0
3040,1685094942486,470.0,437.0
3041,1685094942486,411.0,458.0
3042,1685094942517,481.0,445.0
3043,1685094942517,477.0,416.0
3044,1685094942517,495.0,463.0
3045,1685094942517,424.0,356.0
3046,1685094942549,516.0,456.0
3047,1685094942549,462.0,441.0
3048,1685094942549,395.0,363.0
3049,1685094942580,463.0,431.0
3050,1685094942580,422.0,434.0
3051,1685094942580,374.0,399.0
3052,1685094942580,371.0,445.0
3053,1685094942611,419.0,440.0
3054,1685094942611,383.0,494.0
3055,1685094942611,441.0,440.0
3056,1685094942646,381.0,478.0
3057,1685094942646,469.0,421.0
3058,1685094942646,431.0,442.0
3059,1685094942646,476.0,441.0
3060,1685094942674,475.0,389.0
3061,1685094942674,506.0,473.0
3062,1685094942674,427.0,370.0
3063,1685094942674,504.0,432.0
3064,1685094942718,502.0,491.0
3065,1685094942718,392.0,379.0
3066,1685094942718,418.0,400.0
3067,1685094942750,414.0,441.0
3068,1685094942750,383.0,415.0
3069,1685094942750,355.0,450.0
3070,1685094942750,417.0,434.0
3071,1685094942786,386.0,494.0
3072,1685094942786,456.0,434.0
3073,1685094942786,400.0,472.0
3074,1685094942817,492.0,450.0
3075,1685094942817,467.0,449.0
3076,1685094942817,479.0,448.0
3077,1685094942817,463.0,379.0
3078,1685094942850,521.0,476.0
3079,1685094942850,421.0,395.0
3080,1685094942850,458.0,388.0
3081,1685094942880,508.0,474.0
3082,1685094942880,402.0,399.0
3083,1685094942880,382.0,393.0
3084,1685094942880,399.0,442.0
3085,1685094942911,408.0,426.0
3086,1685094942911,371.0,484.0
3087,1685094942911,437.0,429.0
3088,1685094942942,390.0,484.0
3089,1685094942942,480.0,438.0
3090,1685094942942,408.0,455.0
3091,1685094942942,474.0,438.0
3092,1685094942974,473.0,422.0
3093,1685094942974,481.0,464.0
3094,1685094942974,440.0,359.0
3095,1685094942974,519.0,464.0
3096,1685094943019,442.0,421.0
3097,1685094943019,412.0,375.0
3098,1685094943019,486.0,456.0
3099,1685094943050,409.0,413.0
3100,1685094943050,373.0,400.0
3101,1685094943050,382.0,452.0
3102,1685094943050,418.0,436.0
3103,1685094943086,385.0,485.0
3104,1685094943086,444.0,430.0
3105,1685094943086,382.0,481.0
3106,1685094943118,473.0,428.0
3107,1685094943118,424.0,455.0
3108,1685094943118,473.0,436.0
3109,1685094943118,473.0,399.0
3110,1685094943149,497.0,478.0
3111,1685094943149,422.0,360.0
3112,1685094943149,512.0,440.0
3113,1685094943181,489.0,471.0
3114,1685094943181,387.0,358.0
3115,1685094943181,435.0,416.0
3116,1685094943181,424.0,446.0
3117,1685094943212,377.0,394.0
3118,1685094943212,360.0,444.0
3119,1685094943212,413.0,425.0
3120,1685094943244,378.0,499.0
3121,1685094943244,456.0,432.0
3122,1685094943244,397.0,480.0
3123,1685094943244,493.0,442.0
3124,1685094943275,457.0,451.0
3125,1685094943275,476.0,443.0
3126,1685094943275,467.0,390.0
3127,1685094943275,512.0,477.0
3128,1685094943320,423.0,376.0
3129,1685094943320,471.0,416.0
3130,1685094943320,513.0,489.0
3131,1685094943351,398.0,395.0
3132,1685094943351,389.0,385.0
3133,1685094943351,413.0,434.0
3134,1685094943351,402.0,431.0
3135,1685094943387,376.0,476.0
3136,1685094943387,436.0,437.0
3137,1685094943387,388.0,488.0
3138,1685094943419,465.0,437.0
3139,1685094943419,406.0,452.0
3140,1685094943419,478.0,433.0
3141,1685094943419,471.0,430.0
3142,1685094943453,472.0,445.0
3143,1685094943453,444.0,372.0
3144,1685094943453,506.0,469.0
3145,1685094943482,430.0,421.0
3146,1685094943482,430.0,377.0
3147,1685094943482,499.0,473.0
3148,1685094943482,419.0,423.0
3149,1685094943514,384.0,400.0
3150,1685094943514,386.0,438.0
3151,1685094943514,425.0,434.0
3152,1685094943546,383.0,491.0
3153,1685094943546,448.0,429.0
3154,1685094943546,390.0,486.0
3155,1685094943546,470.0,432.0
3156,1685094943577,411.0,445.0
3157,1685094943577,467.0,437.0
3158,1685094943577,465.0,413.0
3159,1685094943577,484.0,462.0
3160,1685094943620,428.0,363.0
3161,1685094943620,510.0,453.0
3162,1685094943620,461.0,456.0
3163,1685094943652,389.0,360.0
3164,1685094943652,445.0,428.0
3165,1685094943652,434.0,439.0
3166,1685094943652,382.0,393.0
3167,1685094943687,381.0,450.0
3168,1685094943687,419.0,431.0
3169,1685094943687,381.0,499.0
3170,1685094943721,453.0,430.0
3171,1685094943721,391.0,465.0
3172,1685094943721,485.0,452.0
3173,1685094943721,447.0,454.0
3174,1685094943750,464.0,441.0
3175,1685094943750,479.0,400.0
3176,1685094943750,501.0,476.0
3177,1685094943782,416.0,369.0
3178,1685094943782,481.0,425.0
3179,1685094943782,495.0,486.0
3180,1685094943782,395.0,374.0
3181,1685094943813,410.0,407.0
3182,1685094943813,428.0,441.0
3183,1685094943813,390.0,414.0
3184,1685094943845,368.0,474.0
3185,1685094943845,431.0,431.0
3186,1685094943845,386.0,494.0
3187,1685094943845,468.0,433.0
3188,1685094943877,405.0,465.0
3189,1685094943877,485.0,428.0
3190,1685094943877,461.0,443.0
3191,1685094943877,469.0,449.0
3192,1685094943922,449.0,375.0
3193,1685094943922,505.0,462.0
3194,1685094943922,426.0,409.0
3195,1685094943953,434.0,377.0
3196,1685094943953,500.0,474.0
3197,1685094943953,419.0,427.0
3198,1685094943953,383.0,392.0
3199,1685094943988,409.0,446.0
3200,1685094943988,420.0,422.0
3201,1685094943988,382.0,492.0
3202,1685094944019,456.0,442.0
3203,1685094944019,392.0,488.0
3204,1685094944019,473.0,444.0
3205,1685094944019,406.0,451.0
3206,1685094944051,467.0,425.0
3207,1685094944051,466.0,413.0
3208,1685094944051,474.0,463.0
3209,1685094944083,433.0,371.0
3210,1685094944083,506.0,453.0
3211,1685094944083,450.0,437.0
3212,1685094944083,399.0,367.0
3213,1685094944114,473.0,436.0
3214,1685094944114,433.0,443.0
3215,1685094944114,390.0,397.0
3216,1685094944146,387.0,448.0
3217,1685094944146,419.0,432.0
3218,1685094944146,377.0,483.0
3219,1685094944146,446.0,433.0
3220,1685094944177,389.0,468.0
3221,1685094944177,480.0,434.0
3222,1685094944177,429.0,448.0
3223,1685094944177,457.0,442.0
3224,1685094944222,470.0,395.0
3225,1685094944222,487.0,469.0
3226,1685094944222,423.0,368.0
3227,1685094944254,495.0,429.0
3228,1685094944254,484.0,470.0
3229,1685094944254,396.0,377.0
3230,1685094944254,424.0,412.0
3231,1685094944288,421.0,436.0
3232,1685094944288,391.0,411.0
3233,1685094944288,372.0,449.0
3234,1685094944320,432.0,433.0
3235,1685094944320,388.0,503.0
3236,1685094944320,464.0,437.0
3237,1685094944320,390.0,461.0
3238,1685094944353,484.0,443.0
3239,1685094944353,463.0,451.0
3240,1685094944353,464.0,436.0
3241,1685094944382,463.0,383.0
3242,1685094944382,504.0,473.0
3243,1685094944382,418.0,390.0
3244,1685094944382,460.0,404.0
3245,1685094944414,502.0,474.0
3246,1685094944414,408.0,401.0
3247,1685094944414,390.0,400.0
3248,1685094944448,407.0,441.0
3249,1685094944448,410.0,423.0
3250,1685094944448,378.0,484.0
3251,1685094944448,441.0,442.0
3252,1685094944478,402.0,493.0
3253,1685094944478,470.0,443.0
3254,1685094944478,407.0,455.0
3255,1685094944478,474.0,437.0
3256,1685094944523,472.0,430.0
3257,1685094944523,469.0,452.0
3258,1685094944523,437.0,361.0
3259,1685094944554,504.0,465.0
3260,1685094944554,430.0,422.0
3261,1685094944554,411.0,369.0
3262,1685094944554,491.0,453.0
3263,1685094944589,422.0,430.0
3264,1685094944589,379.0,392.0
3265,1685094944589,400.0,464.0
3266,1685094944621,426.0,431.0
3267,1685094944621,386.0,490.0
3268,1685094944621,450.0,427.0
3269,1685094944621,383.0,476.0
3270,1685094944652,475.0,431.0
3271,1685094944652,423.0,458.0
3272,1685094944652,459.0,434.0
3273,1685094944686,469.0,410.0
3274,1685094944686,480.0,458.0
3275,1685094944686,419.0,362.0
3276,1685094944686,506.0,442.0
3277,1685094944716,473.0,469.0
3278,1685094944716,395.0,367.0
3279,1685094944716,436.0,423.0
3280,1685094944755,434.0,446.0
3281,1685094944755,382.0,406.0
3282,1685094944755,374.0,453.0
3283,1685094944755,428.0,431.0
3284,1685094944779,389.0,494.0
3285,1685094944779,447.0,432.0
3286,1685094944779,388.0,462.0
3287,1685094944779,479.0,446.0
3288,1685094944823,443.0,440.0
3289,1685094944823,465.0,445.0
3290,1685094944823,471.0,381.0
3291,1685094944854,504.0,477.0
3292,1685094944854,425.0,395.0
3293,1685094944854,472.0,409.0
3294,1685094944854,505.0,481.0
3295,1685094944890,399.0,386.0
3296,1685094944890,395.0,398.0
3297,1685094944890,414.0,439.0
3298,1685094944921,399.0,420.0
3299,1685094944921,361.0,466.0
3300,1685094944921,431.0,428.0
3301,1685094944921,396.0,508.0
3302,1685094944956,476.0,433.0
3303,1685094944956,407.0,466.0
3304,1685094944956,486.0,449.0
3305,1685094944984,476.0,427.0
3306,1685094944984,471.0,445.0
3307,1685094944984,446.0,372.0
3308,1685094944984,508.0,463.0
3309,1685094945015,424.0,410.0
3310,1685094945015,425.0,381.0
3311,1685094945015,496.0,468.0
3312,1685094945048,417.0,418.0
3313,1685094945048,379.0,393.0
3314,1685094945048,399.0,443.0
3315,1685094945048,417.0,434.0
3316,1685094945090,392.0,489.0
3317,1685094945090,453.0,442.0
3318,1685094945090,390.0,483.0
3319,1685094945090,482.0,435.0
3320,1685094945123,416.0,450.0
3321,1685094945123,465.0,428.0
3322,1685094945123,470.0,423.0
3323,1685094945156,475.0,460.0
3324,1685094945156,424.0,363.0
3325,1685094945156,510.0,460.0
3326,1685094945156,458.0,444.0
3327,1685094945190,393.0,362.0
3328,1685094945190,463.0,439.0
3329,1685094945190,425.0,439.0
3330,1685094945222,376.0,394.0
3331,1685094945222,380.0,452.0
3332,1685094945222,432.0,432.0
3333,1685094945222,385.0,493.0
3334,1685094945256,451.0,428.0
3335,1685094945256,387.0,466.0
3336,1685094945256,472.0,433.0
3337,1685094945285,439.0,445.0
3338,1685094945285,465.0,440.0
3339,1685094945285,468.0,399.0
3340,1685094945285,505.0,476.0
3341,1685094945316,424.0,374.0
3342,1685094945316,488.0,431.0
3343,1685094945316,506.0,481.0
3344,1685094945348,395.0,377.0
3345,1685094945348,411.0,399.0
3346,1685094945348,427.0,445.0
3347,1685094945348,390.0,411.0
3348,1685094945383,363.0,459.0
3349,1685094945383,418.0,424.0
3350,1685094945383,383.0,490.0
3351,1685094945383,465.0,445.0
3352,1685094945424,406.0,476.0
3353,1685094945424,486.0,449.0
3354,1685094945424,472.0,435.0
3355,1685094945455,471.0,443.0
3356,1685094945455,459.0,372.0
3357,1685094945455,514.0,470.0
3358,1685094945455,424.0,400.0
3359,1685094945491,438.0,390.0
3360,1685094945491,504.0,480.0
3361,1685094945491,410.0,403.0
3362,1685094945523,381.0,389.0
3363,1685094945523,402.0,452.0
3364,1685094945523,410.0,424.0
3365,1685094945523,373.0,487.0
3366,1685094945555,450.0,439.0
3367,1685094945555,392.0,494.0
3368,1685094945555,472.0,440.0
3369,1685094945587,418.0,460.0
3370,1685094945587,478.0,439.0
3371,1685094945587,466.0,420.0
3372,1685094945587,483.0,460.0
3373,1685094945618,430.0,359.0
3374,1685094945618,501.0,455.0
3375,1685094945618,443.0,442.0
3376,1685094945650,398.0,366.0
3377,1685094945650,477.0,443.0
3378,1685094945650,425.0,438.0
3379,1685094945650,378.0,384.0
3380,1685094945698,375.0,456.0
3381,1685094945698,424.0,431.0
3382,1685094945698,389.0,502.0
3383,1685094945698,449.0,434.0
3384,1685094945726,387.0,475.0
3385,1685094945726,484.0,440.0
3386,1685094945726,425.0,447.0
3387,1685094945757,465.0,440.0
3388,1685094945757,473.0,400.0
3389,1685094945757,496.0,479.0
3390,1685094945757,418.0,368.0
3391,1685094945791,501.0,432.0
3392,1685094945791,489.0,472.0
3393,1685094945791,385.0,364.0
3394,1685094945823,428.0,412.0
3395,1685094945823,434.0,448.0
3396,1685094945823,385.0,406.0
3397,1685094945823,371.0,472.0
3398,1685094945855,411.0,409.0
3399,1685094945855,374.0,501.0
3400,1685094945855,456.0,430.0
3401,1685094945885,391.0,467.0
3402,1685094945885,480.0,450.0
3403,1685094945885,457.0,434.0
3404,1685094945885,467.0,448.0
3405,1685094945917,467.0,379.0
3406,1685094945917,510.0,473.0
3407,1685094945917,421.0,389.0
3408,1685094945949,470.0,412.0
3409,1685094945949,515.0,489.0
3410,1685094945949,402.0,382.0
3411,1685094945949,390.0,394.0
3412,1685094945981,406.0,431.0
3413,1685094945981,408.0,421.0
3414,1685094945981,369.0,481.0
3415,1685094945981,437.0,434.0
3416,1685094946026,393.0,497.0
3417,1685094946026,466.0,434.0
3418,1685094946026,410.0,463.0
3419,1685094946058,487.0,443.0
3420,1685094946058,468.0,436.0
3421,1685094946058,478.0,456.0
3422,1685094946058,433.0,376.0
3423,1685094946092,521.0,463.0
3424,1685094946092,432.0,426.0
3425,1685094946092,412.0,360.0
3426,1685094946124,490.0,461.0
3427,1685094946124,419.0,425.0
3428,1685094946124,377.0,395.0
3429,1685094946124,386.0,435.0
3430,1685094946156,412.0,428.0
3431,1685094946156,380.0,480.0
3432,1685094946156,455.0,438.0
3433,1685094946187,391.0,479.0
3434,1685094946187,481.0,445.0
3435,1685094946187,428.0,455.0
3436,1685094946187,474.0,432.0
3437,1685094946220,472.0,412.0
3438,1685094946220,489.0,471.0
3439,1685094946220,417.0,361.0
3440,1685094946259,501.0,441.0
3441,1685094946259,475.0,458.0
3442,1685094946259,388.0,373.0
3443,1685094946259,443.0,424.0
3444,1685094946289,430.0,447.0
3445,1685094946289,385.0,412.0
3446,1685094946289,374.0,447.0
3447,1685094946289,427.0,446.0
3448,1685094946326,382.0,479.0
3449,1685094946326,447.0,439.0
3450,1685094946326,384.0,463.0
3451,1685094946358,475.0,430.0
3452,1685094946358,433.0,437.0
3453,1685094946358,468.0,439.0
3454,1685094946358,465.0,391.0
3455,1685094946393,508.0,490.0
3456,1685094946393,421.0,377.0
3457,1685094946393,490.0,422.0
3458,1685094946424,511.0,484.0
3459,1685094946424,402.0,394.0
3460,1685094946424,397.0,389.0
3461,1685094946424,417.0,441.0
3462,1685094946457,396.0,410.0
3463,1685094946457,355.0,465.0
3464,1685094946457,428.0,429.0
3465,1685094946487,391.0,503.0
3466,1685094946487,464.0,439.0
3467,1685094946487,401.0,465.0
3468,1685094946487,485.0,444.0
3469,1685094946523,468.0,437.0
3470,1685094946523,477.0,447.0
3471,1685094946523,450.0,383.0
3472,1685094946550,519.0,472.0
3473,1685094946550,427.0,398.0
3474,1685094946550,437.0,390.0
3475,1685094946550,490.0,466.0
3476,1685094946584,414.0,424.0
3477,1685094946584,376.0,389.0
3478,1685094946584,384.0,441.0
3479,1685094946584,407.0,429.0
3480,1685094946627,367.0,486.0
3481,1685094946627,452.0,438.0
3482,1685094946627,392.0,494.0
3483,1685094946659,488.0,450.0
3484,1685094946659,422.0,456.0
3485,1685094946659,478.0,436.0
3486,1685094946659,485.0,435.0
3487,1685094946694,486.0,453.0
3488,1685094946694,428.0,360.0
3489,1685094946694,515.0,464.0
3490,1685094946726,450.0,430.0
3491,1685094946726,391.0,357.0
3492,1685094946726,466.0,447.0
3493,1685094946726,422.0,434.0
3494,1685094946757,376.0,406.0
3495,1685094946757,372.0,436.0
3496,1685094946757,426.0,436.0
3497,1685094946789,385.0,495.0
3498,1685094946789,445.0,430.0
3499,1685094946789,387.0,470.0
3500,1685094946789,483.0,430.0
3501,1685094946821,433.0,458.0
3502,1685094946821,467.0,438.0
3503,1685094946821,471.0,388.0
3504,1685094946852,508.0,486.0
3505,1685094946852,411.0,364.0
3506,1685094946852,494.0,433.0
3507,1685094946852,509.0,477.0
3508,1685094946883,395.0,371.0
3509,1685094946883,420.0,400.0
3510,1685094946883,424.0,450.0
3511,1685094946883,390.0,416.0
3512,1685094946927,364.0,453.0
3513,1685094946927,428.0,422.0
3514,1685094946927,388.0,500.0
3515,1685094946959,460.0,440.0
3516,1685094946959,395.0,457.0
3517,1685094946959,475.0,441.0
3518,1685094946959,461.0,496.0
3519,1685094946995,474.0,434.0
3520,1685094946995,458.0,365.0
3521,1685094946995,523.0,481.0
3522,1685094947026,426.0,432.0
3523,1685094947026,445.0,343.0
3524,1685094947026,513.0,486.0
3525,1685094947026,413.0,405.0
3526,1685094947058,384.0,386.0
3527,1685094947058,395.0,438.0
3528,1685094947058,399.0,424.0
3529,1685094947091,361.0,485.0
3530,1685094947091,431.0,425.0
3531,1685094947091,392.0,487.0
3532,1685094947091,471.0,434.0
3533,1685094947121,415.0,472.0
3534,1685094947121,489.0,450.0
3535,1685094947121,477.0,436.0
3536,1685094947153,485.0,455.0
3537,1685094947153,437.0,361.0
3538,1685094947153,519.0,464.0
3539,1685094947153,440.0,426.0
3540,1685094947184,404.0,368.0
3541,1685094947184,475.0,448.0
3542,1685094947184,414.0,420.0
3543,1685094947184,367.0,389.0
3544,1685094947228,373.0,431.0
3545,1685094947228,413.0,423.0
3546,1685094947228,389.0,498.0
3547,1685094947261,450.0,437.0
3548,1685094947261,390.0,477.0
3549,1685094947261,486.0,444.0
3550,1685094947261,426.0,450.0
3551,1685094947295,479.0,447.0
3552,1685094947295,471.0,410.0
3553,1685094947295,506.0,473.0
3554,1685094947326,409.0,352.0
3555,1685094947326,498.0,433.0
3556,1685094947326,480.0,466.0
3557,1685094947326,391.0,371.0
3558,1685094947360,438.0,427.0
3559,1685094947360,424.0,434.0
3560,1685094947360,378.0,413.0
3561,1685094947390,373.0,455.0
3562,1685094947390,431.0,440.0
3563,1685094947390,388.0,495.0
3564,1685094947390,448.0,420.0
3565,1685094947422,391.0,468.0
3566,1685094947422,475.0,434.0
3567,1685094947422,442.0,445.0
3568,1685094947453,465.0,446.0
3569,1685094947453,462.0,387.0
3570,1685094947453,509.0,467.0
3571,1685094947453,414.0,390.0
3572,1685094947485,481.0,417.0
3573,1685094947485,519.0,488.0
3574,1685094947485,396.0,393.0
3575,1685094947485,396.0,396.0
3576,1685094947529,410.0,441.0
3577,1685094947529,402.0,427.0
3578,1685094947529,366.0,468.0
3579,1685094947561,425.0,426.0
3580,1685094947561,389.0,493.0
3581,1685094947561,467.0,442.0
3582,1685094947561,408.0,450.0
3583,1685094947596,483.0,443.0
3584,1685094947596,464.0,422.0
3585,1685094947596,481.0,457.0
3586,1685094947629,443.0,376.0
3587,1685094947629,529.0,471.0
3588,1685094947629,442.0,435.0
3589,1685094947629,422.0,381.0
3590,1685094947659,504.0,463.0
3591,1685094947659,418.0,433.0
3592,1685094947659,368.0,380.0
3593,1685094947691,378.0,436.0
3594,1685094947691,413.0,432.0
3595,1685094947691,378.0,485.0
3596,1685094947691,446.0,436.0
3597,1685094947723,393.0,484.0
3598,1685094947723,477.0,445.0
3599,1685094947723,419.0,466.0
3600,1685094947755,485.0,447.0
3601,1685094947755,476.0,404.0
3602,1685094947755,485.0,488.0
3603,1685094947755,423.0,360.0
3604,1685094947787,504.0,450.0
3605,1685094947787,464.0,438.0
3606,1685094947787,383.0,368.0
3607,1685094947787,449.0,428.0
3608,1685094947830,426.0,440.0
3609,1685094947830,368.0,399.0
3610,1685094947830,363.0,424.0
3611,1685094947861,416.0,453.0
3612,1685094947861,391.0,486.0
3613,1685094947861,451.0,414.0
3614,1685094947861,398.0,498.0
3615,1685094947897,494.0,449.0
3616,1685094947897,443.0,444.0
3617,1685094947897,472.0,437.0
3618,1685094947929,466.0,396.0
3619,1685094947929,507.0,467.0
3620,1685094947929,414.0,373.0
3621,1685094947929,477.0,414.0
3622,1685094947961,509.0,480.0
3623,1685094947961,397.0,388.0
3624,1685094947961,393.0,405.0
3625,1685094947992,413.0,461.0
3626,1685094947992,408.0,447.0
3627,1685094947992,384.0,487.0
3628,1685094947992,426.0,408.0
3629,1685094948023,393.0,506.0
3630,1685094948023,460.0,438.0
3631,1685094948023,393.0,462.0
3632,1685094948054,471.0,422.0
3633,1685094948054,461.0,439.0
3634,1685094948054,476.0,448.0
3635,1685094948054,448.0,382.0
3636,1685094948094,522.0,475.0
3637,1685094948094,430.0,380.0
3638,1685094948094,445.0,434.0
3639,1685094948094,508.0,444.0
3640,1685094948130,406.0,416.0
3641,1685094948130,387.0,396.0
3642,1685094948130,403.0,441.0
3643,1685094948163,413.0,460.0
3644,1685094948163,374.0,444.0
3645,1685094948163,444.0,452.0
3646,1685094948163,385.0,486.0
3647,1685094948197,464.0,419.0
3648,1685094948197,407.0,456.0
3649,1685094948197,487.0,437.0
3650,1685094948229,475.0,425.0
3651,1685094948229,488.0,455.0
3652,1685094948229,448.0,372.0
3653,1685094948229,546.0,449.0
3654,1685094948262,516.0,437.0
3655,1685094948262,382.0,418.0
3656,1685094948262,608.0,499.0
3657,1685094948292,274.0,160.0
3658,1685094948292,87.0,560.0
3659,1685094948292,197.0,691.0
3660,1685094948292,770.0,253.0
3661,1685094948323,421.0,351.0
3662,1685094948323,415.0,321.0
3663,1685094948323,375.0,494.0
3664,1685094948323,361.0,419.0
3665,1685094948364,423.0,307.0
3666,1685094948364,433.0,575.0
3667,1685094948364,446.0,376.0
3668,1685094948395,493.0,454.0
3669,1685094948395,470.0,471.0
3670,1685094948395,399.0,335.0
3671,1685094948395,462.0,442.0
3672,1685094948431,429.0,391.0
3673,1685094948431,388.0,482.0
3674,1685094948431,382.0,439.0
3675,1685094948463,415.0,445.0
3676,1685094948463,403.0,485.0
3677,1685094948463,462.0,427.0
3678,1685094948463,392.0,458.0
3679,1685094948494,483.0,423.0
3680,1685094948494,435.0,460.0
3681,1685094948494,458.0,459.0
3682,1685094948525,445.0,397.0
3683,1685094948525,504.0,485.0
3684,1685094948525,406.0,382.0
3685,1685094948525,475.0,420.0
3686,1685094948557,517.0,483.0
3687,1685094948557,401.0,384.0
3688,1685094948557,413.0,408.0
3689,1685094948589,421.0,439.0
3690,1685094948589,403.0,425.0
3691,1685094948589,384.0,477.0
3692,1685094948589,421.0,416.0
3693,1685094948620,394.0,490.0
3694,1685094948620,454.0,423.0
3695,1685094948620,386.0,452.0
3696,1685094948620,474.0,435.0
3697,1685094948664,448.0,437.0
3698,1685094948664,475.0,454.0
3699,1685094948664,442.0,383.0
3700,1685094948696,521.0,464.0
3701,1685094948696,438.0,432.0
3702,1685094948696,435.0,375.0
3703,1685094948696,507.0,478.0
3704,1685094948731,418.0,400.0
3705,1685094948731,372.0,390.0
3706,1685094948731,399.0,441.0
3707,1685094948763,415.0,420.0
3708,1685094948763,385.0,469.0
3709,1685094948763,436.0,433.0
3710,1685094948763,386.0,472.0
3711,1685094948794,476.0,444.0
3712,1685094948794,416.0,470.0
3713,1685094948794,484.0,448.0
3714,1685094948825,469.0,418.0
3715,1685094948825,490.0,475.0
3716,1685094948825,424.0,371.0
3717,1685094948825,515.0,452.0
3718,1685094948863,457.0,449.0
3719,1685094948863,382.0,361.0
3720,1685094948863,459.0,446.0
3721,1685094948888,426.0,431.0
3722,1685094948888,373.0,399.0
3723,1685094948888,380.0,456.0
3724,1685094948888,415.0,416.0
3725,1685094948920,399.0,510.0
3726,1685094948920,454.0,433.0
3727,1685094948920,386.0,473.0
3728,1685094948920,492.0,445.0
3729,1685094948965,435.0,445.0
3730,1685094948965,473.0,450.0
3731,1685094948965,460.0,383.0
3732,1685094948998,506.0,476.0
3733,1685094948998,403.0,375.0
3734,1685094948998,483.0,419.0
3735,1685094948998,506.0,480.0
3736,1685094949032,393.0,376.0
3737,1685094949032,408.0,403.0
3738,1685094949032,430.0,452.0
3739,1685094949063,400.0,423.0
3740,1685094949063,386.0,461.0
3741,1685094949063,430.0,421.0
3742,1685094949063,387.0,491.0
3743,1685094949095,454.0,421.0
3744,1685094949095,386.0,465.0
3745,1685094949095,481.0,426.0
3746,1685094949127,444.0,429.0
3747,1685094949127,465.0,442.0
3748,1685094949127,451.0,378.0
3749,1685094949127,526.0,490.0
3750,1685094949159,434.0,410.0
3751,1685094949159,452.0,392.0
3752,1685094949159,517.0,488.0
3753,1685094949197,423.0,405.0
3754,1685094949197,397.0,398.0
3755,1685094949197,414.0,441.0
3756,1685094949197,409.0,433.0
3757,1685094949221,379.0,476.0
3758,1685094949221,436.0,424.0
3759,1685094949221,378.0,484.0
3760,1685094949221,469.0,433.0
3761,1685094949266,401.0,455.0
3762,1685094949266,480.0,439.0
3763,1685094949266,464.0,419.0
3764,1685094949297,491.0,458.0
3765,1685094949297,432.0,372.0
3766,1685094949297,521.0,456.0
3767,1685094949297,451.0,440.0
3768,1685094949333,400.0,372.0
3769,1685094949333,474.0,435.0
3770,1685094949333,421.0,425.0
3771,1685094949364,369.0,395.0
3772,1685094949364,377.0,438.0
3773,1685094949364,409.0,422.0
3774,1685094949364,392.0,499.0
3775,1685094949396,442.0,423.0
3776,1685094949396,390.0,481.0
3777,1685094949396,487.0,445.0
3778,1685094949427,436.0,452.0
3779,1685094949427,480.0,444.0
3780,1685094949427,475.0,406.0
