Sample Number (10000 samples per second),UNIX Timestamp (Milliseconds since 1970-01-01),C1 (),C2 ()
0,1685098367232,522.0,467.0
1,1685098367240,450.0,444.0
2,1685098367240,345.0,415.0
3,1685098367240,302.0,395.0
4,1685098367240,342.0,396.0
5,1685098367240,416.0,420.0
6,1685098367240,473.0,433.0
7,1685098367242,327.0,421.0
8,1685098367242,529.0,457.0
9,1685098367242,432.0,456.0
10,1685098367242,518.0,426.0
11,1685098367242,416.0,454.0
12,1685098367242,461.0,425.0
13,1685098367242,442.0,447.0
14,1685098367242,432.0,426.0
15,1685098367242,395.0,426.0
16,1685098367242,475.0,449.0
17,1685098367242,378.0,405.0
18,1685098367242,392.0,434.0
19,1685098367242,542.0,476.0
20,1685098367242,370.0,424.0
21,1685098367242,416.0,402.0
22,1685098367242,382.0,452.0
23,1685098367242,471.0,436.0
24,1685098367242,373.0,439.0
25,1685098367242,507.0,440.0
26,1685098367243,394.0,461.0
27,1685098367243,500.0,424.0
28,1685098367243,425.0,443.0
29,1685098367243,509.0,429.0
30,1685098367243,421.0,447.0
31,1685098367243,432.0,433.0
32,1685098367243,390.0,410.0
33,1685098367243,485.0,470.0
34,1685098367243,468.0,428.0
35,1685098367243,362.0,402.0
36,1685098367245,517.0,451.0
37,1685098367245,395.0,435.0
38,1685098367245,370.0,397.0
39,1685098367245,381.0,436.0
40,1685098367245,521.0,438.0
41,1685098367245,378.0,448.0
42,1685098367245,503.0,451.0
43,1685098367245,471.0,454.0
44,1685098367245,497.0,436.0
45,1685098367245,442.0,444.0
46,1685098367245,499.0,435.0
47,1685098367245,418.0,435.0
48,1685098367245,451.0,441.0
49,1685098367245,357.0,405.0
50,1685098367245,427.0,444.0
51,1685098367245,474.0,454.0
52,1685098367245,305.0,397.0
53,1685098367246,446.0,418.0
54,1685098367246,401.0,449.0
55,1685098367246,486.0,415.0
56,1685098367246,375.0,424.0
57,1685098367246,535.0,440.0
58,1685098367246,439.0,448.0
59,1685098367246,536.0,440.0
60,1685098367246,486.0,455.0
61,1685098367246,488.0,430.0
62,1685098367246,443.0,450.0
63,1685098367248,440.0,430.0
64,1685098367248,391.0,416.0
65,1685098367248,471.0,450.0
66,1685098367248,351.0,409.0
67,1685098367248,387.0,424.0
68,1685098367248,526.0,472.0
69,1685098367248,339.0,429.0
70,1685098367248,409.0,401.0
71,1685098367248,434.0,446.0
72,1685098367248,447.0,433.0
73,1685098367248,404.0,441.0
74,1685098367248,532.0,437.0
75,1685098367248,459.0,454.0
76,1685098367249,484.0,425.0
77,1685098367249,453.0,446.0
78,1685098367249,478.0,426.0
79,1685098367249,450.0,442.0
80,1685098367249,445.0,430.0
81,1685098367251,360.0,401.0
82,1685098367251,475.0,463.0
83,1685098367253,492.0,435.0
84,1685098367253,343.0,389.0
85,1685098367253,538.0,451.0
86,1685098367253,431.0,448.0
87,1685098367253,424.0,400.0
88,1685098367253,365.0,424.0
89,1685098367253,510.0,449.0
90,1685098367253,440.0,441.0
91,1685098367253,486.0,437.0
92,1685098367253,425.0,453.0
93,1685098367253,453.0,432.0
94,1685098367253,468.0,448.0
95,1685098367253,475.0,429.0
96,1685098367253,441.0,436.0
97,1685098367254,483.0,438.0
98,1685098367254,388.0,399.0
99,1685098367254,427.0,441.0
100,1685098367254,459.0,460.0
101,1685098367254,275.0,396.0
102,1685098367254,431.0,427.0
103,1685098367254,411.0,449.0
104,1685098367254,458.0,417.0
105,1685098367254,358.0,423.0
106,1685098367254,520.0,446.0
107,1685098367254,428.0,455.0
108,1685098367256,483.0,433.0
109,1685098367256,366.0,451.0
110,1685098367256,512.0,432.0
111,1685098367256,426.0,444.0
112,1685098367256,444.0,429.0
113,1685098367256,424.0,422.0
114,1685098367256,481.0,453.0
115,1685098367256,407.0,406.0
116,1685098367256,359.0,426.0
117,1685098367256,529.0,485.0
118,1685098367256,359.0,426.0
119,1685098367256,359.0,400.0
120,1685098367257,421.0,437.0
121,1685098367257,481.0,431.0
122,1685098367257,351.0,436.0
123,1685098367257,495.0,442.0
124,1685098367257,459.0,451.0
125,1685098367257,535.0,439.0
126,1685098367257,443.0,447.0
127,1685098367257,557.0,434.0
128,1685098367257,446.0,436.0
129,1685098367257,456.0,433.0
130,1685098367257,379.0,407.0
131,1685098367257,472.0,460.0
132,1685098367257,453.0,436.0
133,1685098367257,335.0,396.0
134,1685098367257,485.0,443.0
135,1685098367259,363.0,452.0
136,1685098367262,357.0,404.0
137,1685098367262,398.0,423.0
138,1685098367262,520.0,440.0
139,1685098367262,421.0,452.0
140,1685098367262,523.0,437.0
141,1685098367262,470.0,452.0
142,1685098367262,501.0,430.0
143,1685098367262,467.0,457.0
144,1685098367264,461.0,424.0
145,1685098367267,406.0,423.0
146,1685098367268,472.0,452.0
147,1685098367268,363.0,397.0
148,1685098367268,369.0,437.0
149,1685098367268,521.0,471.0
150,1685098367268,325.0,401.0
151,1685098367270,430.0,416.0
152,1685098367270,415.0,453.0
153,1685098367270,460.0,424.0
154,1685098367270,373.0,427.0
155,1685098367270,504.0,439.0
156,1685098367270,427.0,455.0
157,1685098367270,511.0,436.0
158,1685098367270,399.0,436.0
159,1685098367270,493.0,435.0
160,1685098367270,461.0,451.0
161,1685098367270,450.0,426.0
162,1685098367270,401.0,416.0
163,1685098367270,480.0,454.0
164,1685098367270,394.0,408.0
165,1685098367270,363.0,419.0
166,1685098367270,530.0,484.0
167,1685098367270,373.0,429.0
168,1685098367270,403.0,400.0
169,1685098367270,353.0,445.0
170,1685098367270,490.0,432.0
171,1685098367270,333.0,430.0
172,1685098367271,516.0,442.0
173,1685098367271,441.0,468.0
174,1685098367271,510.0,429.0
175,1685098367271,426.0,445.0
176,1685098367271,489.0,435.0
177,1685098367271,453.0,436.0
178,1685098367271,436.0,434.0
179,1685098367271,388.0,403.0
180,1685098367271,479.0,457.0
181,1685098367271,441.0,431.0
182,1685098367271,301.0,400.0
183,1685098367271,480.0,445.0
184,1685098367271,414.0,452.0
185,1685098367271,426.0,400.0
186,1685098367271,367.0,431.0
187,1685098367271,530.0,449.0
188,1685098367271,365.0,438.0
189,1685098367271,546.0,444.0
190,1685098367271,474.0,455.0
191,1685098367271,491.0,432.0
192,1685098367271,440.0,446.0
193,1685098367271,456.0,430.0
194,1685098367271,435.0,434.0
195,1685098367271,480.0,440.0
196,1685098367271,384.0,403.0
197,1685098367271,418.0,441.0
198,1685098367271,528.0,466.0
199,1685098367271,304.0,404.0
200,1685098367271,435.0,412.0
201,1685098367271,427.0,449.0
202,1685098367271,463.0,411.0
203,1685098367271,321.0,427.0
204,1685098367271,565.0,448.0
205,1685098367271,440.0,448.0
206,1685098367271,539.0,440.0
207,1685098367271,431.0,438.0
208,1685098367271,477.0,429.0
209,1685098367271,421.0,444.0
210,1685098367271,448.0,431.0
211,1685098367271,393.0,417.0
212,1685098367271,473.0,462.0
213,1685098367271,396.0,413.0
214,1685098367271,362.0,423.0
215,1685098367271,522.0,471.0
216,1685098367271,346.0,434.0
217,1685098367271,409.0,397.0
218,1685098367271,428.0,442.0
219,1685098367271,507.0,444.0
220,1685098367271,399.0,440.0
221,1685098367271,526.0,446.0
222,1685098367271,418.0,454.0
223,1685098367271,472.0,437.0
224,1685098367271,450.0,447.0
225,1685098367271,467.0,423.0
226,1685098367271,428.0,433.0
227,1685098367271,468.0,436.0
228,1685098367271,414.0,398.0
229,1685098367271,486.0,458.0
230,1685098367271,462.0,438.0
231,1685098367271,327.0,398.0
232,1685098367271,481.0,439.0
233,1685098367271,391.0,460.0
234,1685098367271,426.0,398.0
235,1685098367271,350.0,423.0
236,1685098367271,502.0,448.0
237,1685098367271,416.0,448.0
238,1685098367276,454.0,434.0
239,1685098367276,442.0,455.0
240,1685098367276,522.0,433.0
241,1685098367276,470.0,448.0
242,1685098367276,488.0,430.0
243,1685098367276,437.0,431.0
244,1685098367276,482.0,453.0
245,1685098367276,358.0,394.0
246,1685098367276,462.0,443.0
247,1685098367276,522.0,468.0
248,1685098367276,311.0,405.0
249,1685098367276,395.0,413.0
250,1685098367276,403.0,455.0
251,1685098367276,472.0,415.0
252,1685098367276,362.0,427.0
253,1685098367276,538.0,453.0
254,1685098367276,481.0,451.0
255,1685098367276,499.0,432.0
256,1685098367276,464.0,452.0
257,1685098367276,488.0,440.0
258,1685098367276,448.0,448.0
259,1685098367276,445.0,425.0
260,1685098367276,428.0,425.0
261,1685098367276,487.0,455.0
262,1685098367276,406.0,411.0
263,1685098367276,382.0,415.0
264,1685098367276,498.0,476.0
265,1685098367276,397.0,430.0
266,1685098367276,405.0,402.0
267,1685098367276,405.0,444.0
268,1685098367276,522.0,442.0
269,1685098367276,359.0,437.0
270,1685098367276,506.0,443.0
271,1685098367276,448.0,457.0
272,1685098367276,496.0,432.0
273,1685098367276,417.0,444.0
274,1685098367276,458.0,433.0
275,1685098367276,405.0,436.0
276,1685098367276,437.0,435.0
277,1685098367276,373.0,401.0
278,1685098367276,469.0,462.0
279,1685098367276,467.0,430.0
280,1685098367276,284.0,393.0
281,1685098367276,490.0,436.0
282,1685098367276,434.0,452.0
283,1685098367276,433.0,408.0
284,1685098367276,372.0,434.0
285,1685098367276,512.0,444.0
286,1685098367276,385.0,448.0
287,1685098367276,518.0,446.0
288,1685098367276,397.0,444.0
289,1685098367276,506.0,426.0
290,1685098367276,441.0,451.0
291,1685098367276,469.0,425.0
292,1685098367276,431.0,432.0
293,1685098367276,465.0,458.0
294,1685098367276,377.0,395.0
295,1685098367276,410.0,440.0
296,1685098367276,485.0,463.0
297,1685098367276,421.0,414.0
298,1685098367276,418.0,403.0
299,1685098367276,396.0,451.0
300,1685098367276,461.0,424.0
301,1685098367276,338.0,420.0
302,1685098367276,514.0,439.0
303,1685098367276,431.0,457.0
304,1685098367276,566.0,443.0
305,1685098367276,475.0,444.0
306,1685098367276,456.0,432.0
307,1685098367276,448.0,447.0
308,1685098367276,440.0,424.0
309,1685098367276,403.0,420.0
310,1685098367276,472.0,457.0
311,1685098367276,394.0,415.0
312,1685098367276,264.0,414.0
313,1685098367276,472.0,474.0
314,1685098367276,369.0,436.0
315,1685098367276,419.0,402.0
316,1685098367276,378.0,443.0
317,1685098367276,508.0,442.0
318,1685098367276,376.0,431.0
319,1685098367276,514.0,444.0
320,1685098367276,415.0,461.0
321,1685098367276,502.0,436.0
322,1685098367276,409.0,445.0
323,1685098367276,494.0,433.0
324,1685098367276,463.0,441.0
325,1685098367276,443.0,433.0
326,1685098367276,374.0,401.0
327,1685098367276,458.0,452.0
328,1685098367276,439.0,433.0
329,1685098367276,409.0,398.0
330,1685098367276,490.0,442.0
331,1685098367276,411.0,450.0
332,1685098367276,415.0,405.0
333,1685098367276,361.0,425.0
334,1685098367276,514.0,441.0
335,1685098367276,419.0,454.0
336,1685098367276,507.0,438.0
337,1685098367276,445.0,457.0
338,1685098367276,455.0,432.0
339,1685098367276,463.0,447.0
340,1685098367276,460.0,424.0
341,1685098367276,422.0,434.0
342,1685098367276,467.0,446.0
343,1685098367276,392.0,398.0
344,1685098367276,428.0,444.0
345,1685098367276,495.0,461.0
346,1685098367276,351.0,411.0
347,1685098367276,458.0,414.0
348,1685098367276,426.0,447.0
349,1685098367276,446.0,422.0
350,1685098367276,361.0,432.0
351,1685098367276,510.0,439.0
352,1685098367276,413.0,452.0
353,1685098367276,498.0,434.0
354,1685098367276,434.0,446.0
355,1685098367276,452.0,433.0
356,1685098367276,412.0,441.0
357,1685098367276,461.0,439.0
358,1685098367276,412.0,418.0
359,1685098367276,472.0,459.0
360,1685098367276,357.0,416.0
361,1685098367276,355.0,421.0
362,1685098367276,527.0,473.0
363,1685098367276,373.0,432.0
364,1685098367276,423.0,397.0
365,1685098367276,372.0,439.0
366,1685098367276,491.0,438.0
367,1685098367276,382.0,438.0
368,1685098367276,557.0,448.0
369,1685098367276,439.0,452.0
370,1685098367276,512.0,434.0
371,1685098367276,483.0,453.0
372,1685098367276,477.0,433.0
373,1685098367276,434.0,434.0
374,1685098367276,441.0,439.0
375,1685098367276,366.0,393.0
376,1685098367276,465.0,462.0
377,1685098367276,419.0,443.0
378,1685098367276,281.0,391.0
379,1685098367276,443.0,439.0
380,1685098367276,397.0,450.0
381,1685098367276,420.0,401.0
382,1685098367276,363.0,428.0
383,1685098367276,512.0,447.0
384,1685098367276,427.0,456.0
385,1685098367276,514.0,438.0
386,1685098367276,424.0,446.0
387,1685098367276,495.0,437.0
388,1685098367276,465.0,445.0
389,1685098367276,436.0,422.0
390,1685098367276,408.0,429.0
391,1685098367276,468.0,449.0
392,1685098367276,357.0,394.0
393,1685098367276,405.0,437.0
394,1685098367276,512.0,471.0
395,1685098367276,310.0,402.0
396,1685098367276,398.0,409.0
397,1685098367276,471.0,461.0
398,1685098367276,484.0,422.0
399,1685098367276,364.0,425.0
400,1685098367276,532.0,446.0
401,1685098367276,431.0,460.0
402,1685098367276,485.0,425.0
403,1685098367276,371.0,443.0
404,1685098367276,479.0,434.0
405,1685098367276,456.0,443.0
406,1685098367276,455.0,427.0
407,1685098367276,422.0,416.0
408,1685098367276,500.0,465.0
409,1685098367276,407.0,412.0
410,1685098367276,366.0,419.0
411,1685098367276,543.0,475.0
412,1685098367276,372.0,427.0
413,1685098367276,361.0,400.0
414,1685098367276,411.0,438.0
415,1685098367276,519.0,428.0
416,1685098367276,371.0,438.0
417,1685098367276,508.0,439.0
418,1685098367276,410.0,460.0
419,1685098367276,500.0,419.0
420,1685098367276,432.0,446.0
421,1685098367276,492.0,435.0
422,1685098367276,445.0,436.0
423,1685098367276,454.0,440.0
424,1685098367276,410.0,398.0
425,1685098367276,477.0,459.0
426,1685098367276,470.0,442.0
427,1685098367276,290.0,386.0
428,1685098367276,480.0,439.0
429,1685098367276,379.0,445.0
430,1685098367276,407.0,402.0
431,1685098367276,344.0,427.0
432,1685098367276,534.0,432.0
433,1685098367276,414.0,452.0
434,1685098367276,525.0,438.0
435,1685098367276,438.0,456.0
436,1685098367276,500.0,434.0
437,1685098367276,442.0,453.0
438,1685098367276,471.0,434.0
439,1685098367276,463.0,429.0
440,1685098367276,467.0,448.0
441,1685098367276,365.0,396.0
442,1685098367276,419.0,437.0
443,1685098367276,495.0,463.0
444,1685098367276,319.0,405.0
445,1685098367276,426.0,405.0
446,1685098367276,421.0,456.0
447,1685098367276,470.0,416.0
448,1685098367276,368.0,432.0
449,1685098367276,480.0,443.0
450,1685098367276,419.0,452.0
451,1685098367276,498.0,440.0
452,1685098367276,408.0,442.0
453,1685098367276,476.0,421.0
454,1685098367276,444.0,450.0
455,1685098367276,458.0,427.0
456,1685098367276,392.0,415.0
457,1685098367276,463.0,457.0
458,1685098367276,385.0,423.0
459,1685098367276,369.0,406.0
460,1685098367276,517.0,476.0
461,1685098367276,382.0,434.0
462,1685098367276,415.0,399.0
463,1685098367276,389.0,438.0
464,1685098367276,515.0,442.0
465,1685098367276,355.0,437.0
466,1685098367276,519.0,433.0
467,1685098367276,381.0,464.0
468,1685098367276,497.0,435.0
469,1685098367276,425.0,446.0
470,1685098367276,477.0,429.0
471,1685098367292,447.0,444.0
472,1685098367292,464.0,430.0
473,1685098367292,378.0,403.0
474,1685098367292,453.0,458.0
475,1685098367292,444.0,442.0
476,1685098367292,301.0,385.0
477,1685098367292,481.0,438.0
478,1685098367292,413.0,451.0
479,1685098367292,423.0,396.0
480,1685098367292,305.0,425.0
481,1685098367292,511.0,442.0
482,1685098367292,422.0,440.0
483,1685098367292,500.0,435.0
484,1685098367292,468.0,460.0
485,1685098367292,519.0,439.0
486,1685098367292,437.0,447.0
487,1685098367292,464.0,435.0
488,1685098367292,439.0,433.0
489,1685098367292,481.0,450.0
490,1685098367292,361.0,392.0
491,1685098367292,408.0,439.0
492,1685098367292,540.0,465.0
493,1685098367292,289.0,404.0
494,1685098367292,434.0,414.0
495,1685098367292,413.0,446.0
496,1685098367292,459.0,421.0
497,1685098367292,368.0,428.0
498,1685098367292,521.0,449.0
499,1685098367292,412.0,447.0
500,1685098367292,576.0,432.0
501,1685098367292,424.0,451.0
502,1685098367292,494.0,434.0
503,1685098367292,427.0,435.0
504,1685098367292,453.0,435.0
505,1685098367292,426.0,412.0
506,1685098367292,477.0,454.0
507,1685098367292,383.0,410.0
508,1685098367292,371.0,421.0
509,1685098367292,538.0,469.0
510,1685098367292,361.0,438.0
511,1685098367292,406.0,399.0
512,1685098367292,409.0,437.0
513,1685098367292,483.0,434.0
514,1685098367292,378.0,439.0
515,1685098367292,524.0,443.0
516,1685098367292,421.0,455.0
517,1685098367292,491.0,434.0
518,1685098367292,431.0,453.0
519,1685098367292,480.0,427.0
520,1685098367292,352.0,443.0
521,1685098367292,438.0,437.0
522,1685098367292,398.0,405.0
523,1685098367292,493.0,457.0
524,1685098367292,451.0,444.0
525,1685098367292,315.0,393.0
526,1685098367292,469.0,442.0
527,1685098367292,403.0,450.0
528,1685098367292,425.0,400.0
529,1685098367292,367.0,437.0
530,1685098367292,515.0,443.0
531,1685098367292,399.0,460.0
532,1685098367292,500.0,434.0
533,1685098367292,461.0,450.0
534,1685098367292,488.0,432.0
535,1685098367292,431.0,451.0
536,1685098367292,463.0,428.0
537,1685098367292,414.0,432.0
538,1685098367292,476.0,448.0
539,1685098367292,356.0,397.0
540,1685098367292,364.0,445.0
541,1685098367292,498.0,462.0
542,1685098367292,357.0,403.0
543,1685098367292,430.0,418.0
544,1685098367292,424.0,450.0
545,1685098367292,448.0,416.0
546,1685098367292,356.0,421.0
547,1685098367292,509.0,440.0
548,1685098367292,420.0,458.0
549,1685098367292,499.0,427.0
550,1685098367292,430.0,444.0
551,1685098367292,511.0,432.0
552,1685098367292,445.0,448.0
553,1685098367292,466.0,429.0
554,1685098367292,391.0,413.0
555,1685098367292,444.0,461.0
556,1685098367292,393.0,411.0
557,1685098367292,341.0,415.0
558,1685098367292,423.0,476.0
559,1685098367292,364.0,425.0
560,1685098367292,396.0,399.0
561,1685098367292,394.0,440.0
562,1685098367292,483.0,436.0
563,1685098367292,375.0,430.0
564,1685098367292,538.0,446.0
565,1685098367292,438.0,460.0
566,1685098367292,526.0,434.0
567,1685098367292,491.0,444.0
568,1685098367292,492.0,435.0
569,1685098367292,433.0,439.0
570,1685098367292,447.0,434.0
571,1685098367292,376.0,407.0
572,1685098367292,464.0,462.0
573,1685098367292,498.0,433.0
574,1685098367292,347.0,402.0
575,1685098367292,540.0,442.0
576,1685098367292,409.0,439.0
577,1685098367292,413.0,400.0
578,1685098367292,387.0,439.0
579,1685098367292,502.0,446.0
580,1685098367292,370.0,447.0
581,1685098367292,498.0,439.0
582,1685098367292,425.0,454.0
583,1685098367292,469.0,427.0
584,1685098367292,384.0,444.0
585,1685098367292,475.0,431.0
586,1685098367292,405.0,430.0
587,1685098367292,461.0,450.0
588,1685098367292,316.0,408.0
589,1685098367292,432.0,439.0
590,1685098367292,461.0,466.0
591,1685098367292,316.0,401.0
592,1685098367292,422.0,415.0
593,1685098367292,382.0,439.0
594,1685098367292,445.0,420.0
595,1685098367292,369.0,428.0
596,1685098367292,525.0,440.0
597,1685098367292,405.0,453.0
598,1685098367292,497.0,436.0
599,1685098367292,413.0,446.0
600,1685098367292,479.0,427.0
601,1685098367292,438.0,451.0
602,1685098367292,442.0,432.0
603,1685098367292,404.0,416.0
604,1685098367292,494.0,468.0
605,1685098367292,394.0,407.0
606,1685098367292,373.0,419.0
607,1685098367292,486.0,465.0
608,1685098367292,365.0,425.0
609,1685098367292,415.0,402.0
610,1685098367292,378.0,437.0
611,1685098367292,471.0,435.0
612,1685098367292,340.0,438.0
613,1685098367292,495.0,444.0
614,1685098367292,427.0,453.0
615,1685098367292,513.0,440.0
616,1685098367292,431.0,453.0
617,1685098367292,485.0,433.0
618,1685098367292,429.0,448.0
619,1685098367292,498.0,438.0
620,1685098367292,384.0,394.0
621,1685098367292,474.0,460.0
622,1685098367292,464.0,432.0
623,1685098367292,323.0,394.0
624,1685098367292,479.0,446.0
625,1685098367292,412.0,441.0
626,1685098367292,395.0,405.0
627,1685098367292,365.0,433.0
628,1685098367292,506.0,450.0
629,1685098367292,336.0,452.0
630,1685098367292,490.0,434.0
631,1685098367292,430.0,457.0
632,1685098367292,513.0,440.0
633,1685098367292,428.0,441.0
634,1685098367292,469.0,428.0
635,1685098367292,430.0,444.0
636,1685098367292,448.0,447.0
637,1685098367292,348.0,402.0
638,1685098367292,449.0,439.0
639,1685098367292,518.0,461.0
640,1685098367292,321.0,391.0
641,1685098367292,418.0,418.0
642,1685098367292,455.0,457.0
643,1685098367292,454.0,415.0
644,1685098367292,352.0,425.0
645,1685098367292,503.0,455.0
646,1685098367292,420.0,450.0
647,1685098367292,482.0,417.0
648,1685098367292,430.0,460.0
649,1685098367292,523.0,429.0
650,1685098367292,426.0,438.0
651,1685098367292,448.0,435.0
652,1685098367292,432.0,420.0
653,1685098367292,514.0,459.0
654,1685098367292,384.0,407.0
655,1685098367292,379.0,425.0
656,1685098367292,526.0,471.0
657,1685098367292,365.0,424.0
658,1685098367292,413.0,405.0
659,1685098367292,394.0,441.0
660,1685098367292,477.0,439.0
661,1685098367292,382.0,431.0
662,1685098367292,525.0,436.0
663,1685098367292,422.0,454.0
664,1685098367292,493.0,422.0
665,1685098367292,458.0,457.0
666,1685098367292,494.0,436.0
667,1685098367292,429.0,430.0
668,1685098367292,459.0,441.0
669,1685098367292,378.0,401.0
670,1685098367292,481.0,465.0
671,1685098367292,431.0,427.0
672,1685098367292,298.0,402.0
673,1685098367292,510.0,453.0
674,1685098367292,419.0,448.0
675,1685098367292,410.0,404.0
676,1685098367292,367.0,435.0
677,1685098367292,506.0,436.0
678,1685098367292,403.0,449.0
679,1685098367292,548.0,441.0
680,1685098367292,428.0,456.0
681,1685098367292,500.0,438.0
682,1685098367292,394.0,456.0
683,1685098367292,447.0,427.0
684,1685098367292,424.0,442.0
685,1685098367292,484.0,447.0
686,1685098367292,376.0,399.0
687,1685098367292,435.0,446.0
688,1685098367292,468.0,457.0
689,1685098367292,318.0,402.0
690,1685098367292,427.0,410.0
691,1685098367292,417.0,457.0
692,1685098367292,479.0,415.0
693,1685098367292,331.0,417.0
694,1685098367292,498.0,445.0
695,1685098367292,425.0,466.0
696,1685098367292,508.0,427.0
697,1685098367292,435.0,445.0
698,1685098367292,497.0,433.0
699,1685098367292,454.0,450.0
700,1685098367292,457.0,427.0
701,1685098367292,384.0,419.0
702,1685098367292,427.0,462.0
703,1685098367292,348.0,412.0
704,1685098367292,372.0,423.0
705,1685098367292,540.0,477.0
706,1685098367292,361.0,420.0
707,1685098367292,424.0,396.0
708,1685098367292,430.0,450.0
709,1685098367292,509.0,437.0
710,1685098367292,377.0,434.0
711,1685098367292,501.0,437.0
712,1685098367292,454.0,462.0
713,1685098367292,499.0,433.0
714,1685098367292,418.0,455.0
715,1685098367292,481.0,435.0
716,1685098367292,447.0,436.0
717,1685098367292,464.0,430.0
718,1685098367292,376.0,401.0
719,1685098367292,481.0,465.0
720,1685098367292,427.0,427.0
721,1685098367292,277.0,401.0
722,1685098367292,518.0,460.0
723,1685098367292,399.0,439.0
724,1685098367292,359.0,399.0
725,1685098367292,354.0,426.0
726,1685098367292,509.0,441.0
727,1685098367292,377.0,442.0
728,1685098367292,489.0,436.0
729,1685098367292,433.0,460.0
730,1685098367292,494.0,429.0
731,1685098367292,430.0,443.0
732,1685098367292,455.0,436.0
733,1685098367292,391.0,431.0
734,1685098367292,450.0,443.0
735,1685098367292,388.0,397.0
736,1685098367292,496.0,453.0
737,1685098367292,496.0,460.0
738,1685098367308,308.0,399.0
739,1685098367308,448.0,421.0
740,1685098367308,408.0,446.0
741,1685098367308,468.0,410.0
742,1685098367308,361.0,421.0
743,1685098367308,500.0,435.0
744,1685098367308,423.0,454.0
745,1685098367308,497.0,440.0
746,1685098367308,439.0,450.0
747,1685098367308,491.0,438.0
748,1685098367308,435.0,445.0
749,1685098367308,469.0,434.0
750,1685098367308,418.0,410.0
751,1685098367308,487.0,457.0
752,1685098367308,378.0,402.0
753,1685098367308,383.0,426.0
754,1685098367308,545.0,470.0
755,1685098367308,341.0,421.0
756,1685098367308,407.0,395.0
757,1685098367308,397.0,442.0
758,1685098367308,485.0,428.0
759,1685098367308,377.0,434.0
760,1685098367308,525.0,436.0
761,1685098367308,472.0,456.0
762,1685098367310,493.0,437.0
763,1685098367310,407.0,453.0
764,1685098367310,441.0,434.0
765,1685098367310,433.0,443.0
766,1685098367310,459.0,433.0
767,1685098367310,378.0,406.0
768,1685098367310,468.0,462.0
769,1685098367310,445.0,429.0
770,1685098367310,310.0,397.0
771,1685098367310,513.0,451.0
772,1685098367310,394.0,448.0
773,1685098367310,420.0,399.0
774,1685098367310,379.0,432.0
775,1685098367310,534.0,447.0
776,1685098367310,378.0,444.0
777,1685098367310,519.0,444.0
778,1685098367310,415.0,457.0
779,1685098367310,475.0,436.0
780,1685098367310,437.0,443.0
781,1685098367310,445.0,425.0
782,1685098367310,414.0,425.0
783,1685098367310,470.0,440.0
784,1685098367310,390.0,400.0
785,1685098367310,445.0,449.0
786,1685098367310,430.0,458.0
787,1685098367310,294.0,387.0
788,1685098367310,456.0,425.0
789,1685098367310,424.0,445.0
790,1685098367310,440.0,415.0
791,1685098367310,339.0,423.0
792,1685098367310,530.0,449.0
793,1685098367310,382.0,454.0
794,1685098367310,484.0,424.0
795,1685098367310,401.0,458.0
796,1685098367310,503.0,433.0
797,1685098367310,441.0,445.0
798,1685098367310,457.0,431.0
799,1685098367310,442.0,427.0
800,1685098367310,479.0,458.0
801,1685098367310,383.0,404.0
802,1685098367310,419.0,431.0
803,1685098367310,546.0,470.0
804,1685098367310,343.0,419.0
805,1685098367310,391.0,402.0
806,1685098367310,405.0,447.0
807,1685098367310,492.0,429.0
808,1685098367310,376.0,431.0
809,1685098367310,487.0,440.0
810,1685098367310,394.0,459.0
811,1685098367310,529.0,426.0
812,1685098367310,429.0,443.0
813,1685098367310,501.0,443.0
814,1685098367310,448.0,443.0
815,1685098367313,442.0,432.0
816,1685098367313,379.0,406.0
817,1685098367313,477.0,457.0
818,1685098367313,337.0,421.0
819,1685098367313,254.0,403.0
820,1685098367313,482.0,454.0
821,1685098367313,400.0,442.0
822,1685098367313,426.0,400.0
823,1685098367313,388.0,437.0
824,1685098367313,508.0,443.0
825,1685098367313,393.0,442.0
826,1685098367313,506.0,451.0
827,1685098367313,453.0,461.0
828,1685098367313,520.0,431.0
829,1685098367313,421.0,444.0
830,1685098367313,462.0,429.0
831,1685098367313,413.0,432.0
832,1685098367313,435.0,441.0
833,1685098367313,347.0,392.0
834,1685098367313,429.0,449.0
835,1685098367313,402.0,449.0
836,1685098367313,321.0,396.0
837,1685098367313,459.0,417.0
838,1685098367313,421.0,446.0
839,1685098367313,462.0,419.0
840,1685098367313,361.0,429.0
841,1685098367313,507.0,444.0
842,1685098367313,397.0,448.0
843,1685098367313,505.0,434.0
844,1685098367313,425.0,451.0
845,1685098367313,452.0,426.0
846,1685098367313,442.0,455.0
847,1685098367313,456.0,421.0
848,1685098367313,413.0,420.0
849,1685098367313,486.0,465.0
850,1685098367313,338.0,398.0
851,1685098367313,416.0,431.0
852,1685098367313,502.0,475.0
853,1685098367313,341.0,424.0
854,1685098367313,426.0,406.0
855,1685098367313,400.0,447.0
856,1685098367313,481.0,433.0
857,1685098367313,348.0,422.0
858,1685098367313,515.0,437.0
859,1685098367313,444.0,456.0
860,1685098367313,474.0,433.0
861,1685098367313,447.0,445.0
862,1685098367313,528.0,436.0
863,1685098367313,450.0,446.0
864,1685098367313,460.0,435.0
865,1685098367313,384.0,412.0
866,1685098367313,485.0,463.0
867,1685098367313,439.0,422.0
868,1685098367313,349.0,399.0
869,1685098367313,523.0,465.0
870,1685098367313,383.0,441.0
871,1685098367313,403.0,388.0
872,1685098367313,369.0,430.0
873,1685098367313,509.0,448.0
874,1685098367313,381.0,431.0
875,1685098367313,505.0,447.0
876,1685098367313,404.0,456.0
877,1685098367313,516.0,432.0
878,1685098367313,450.0,452.0
879,1685098367313,480.0,434.0
880,1685098367313,447.0,442.0
881,1685098367313,471.0,436.0
882,1685098367313,355.0,394.0
883,1685098367313,449.0,453.0
884,1685098367313,432.0,447.0
885,1685098367313,249.0,398.0
886,1685098367313,459.0,425.0
887,1685098367313,417.0,453.0
888,1685098367313,484.0,404.0
889,1685098367313,392.0,435.0
890,1685098367313,540.0,444.0
891,1685098367313,431.0,447.0
892,1685098367313,511.0,439.0
893,1685098367313,414.0,452.0
894,1685098367313,481.0,423.0
895,1685098367313,411.0,450.0
896,1685098367313,424.0,429.0
897,1685098367313,437.0,434.0
898,1685098367313,472.0,457.0
899,1685098367313,368.0,401.0
900,1685098367313,399.0,436.0
901,1685098367313,472.0,469.0
902,1685098367313,320.0,416.0
903,1685098367313,449.0,417.0
904,1685098367313,394.0,447.0
905,1685098367313,418.0,425.0
906,1685098367313,354.0,435.0
907,1685098367313,515.0,439.0
908,1685098367313,424.0,445.0
909,1685098367313,494.0,432.0
910,1685098367313,435.0,444.0
911,1685098367313,504.0,429.0
912,1685098367313,461.0,446.0
913,1685098367313,493.0,430.0
914,1685098367313,407.0,414.0
915,1685098367313,491.0,464.0
916,1685098367313,405.0,427.0
917,1685098367313,358.0,416.0
918,1685098367313,518.0,469.0
919,1685098367313,378.0,437.0
920,1685098367313,426.0,398.0
921,1685098367313,385.0,428.0
922,1685098367313,483.0,441.0
923,1685098367313,370.0,436.0
924,1685098367313,537.0,447.0
925,1685098367313,424.0,456.0
926,1685098367313,503.0,432.0
927,1685098367313,456.0,455.0
928,1685098367313,471.0,428.0
929,1685098367313,439.0,445.0
930,1685098367313,458.0,443.0
931,1685098367313,382.0,399.0
932,1685098367313,455.0,457.0
933,1685098367313,487.0,445.0
934,1685098367313,278.0,390.0
935,1685098367313,460.0,424.0
936,1685098367313,415.0,457.0
937,1685098367313,434.0,398.0
938,1685098367313,345.0,422.0
939,1685098367313,567.0,457.0
940,1685098367313,433.0,449.0
941,1685098367313,493.0,440.0
942,1685098367313,371.0,452.0
943,1685098367313,504.0,438.0
944,1685098367313,432.0,452.0
945,1685098367313,431.0,422.0
946,1685098367313,418.0,433.0
947,1685098367313,469.0,454.0
948,1685098367313,359.0,395.0
949,1685098367313,396.0,445.0
950,1685098367313,477.0,469.0
951,1685098367313,307.0,410.0
952,1685098367313,432.0,402.0
953,1685098367313,455.0,458.0
954,1685098367313,486.0,427.0
955,1685098367313,361.0,427.0
956,1685098367313,524.0,448.0
957,1685098367313,437.0,455.0
958,1685098367313,507.0,428.0
959,1685098367313,464.0,463.0
960,1685098367313,487.0,424.0
961,1685098367313,408.0,446.0
962,1685098367313,473.0,430.0
963,1685098367313,414.0,421.0
964,1685098367313,482.0,457.0
965,1685098367313,420.0,416.0
966,1685098367313,359.0,416.0
967,1685098367313,527.0,472.0
968,1685098367313,361.0,432.0
969,1685098367313,420.0,398.0
970,1685098367313,397.0,445.0
971,1685098367313,504.0,429.0
972,1685098367313,378.0,436.0
973,1685098367313,519.0,443.0
974,1685098367313,416.0,452.0
975,1685098367313,490.0,426.0
976,1685098367313,484.0,450.0
977,1685098367313,479.0,428.0
978,1685098367313,440.0,438.0
979,1685098367313,458.0,436.0
980,1685098367313,336.0,407.0
981,1685098367313,463.0,458.0
982,1685098367313,456.0,440.0
983,1685098367313,313.0,394.0
984,1685098367313,477.0,435.0
985,1685098367313,375.0,448.0
986,1685098367313,417.0,397.0
987,1685098367313,354.0,427.0
988,1685098367313,505.0,441.0
989,1685098367313,406.0,448.0
990,1685098367313,576.0,438.0
991,1685098367313,437.0,453.0
992,1685098367313,495.0,431.0
993,1685098367313,454.0,450.0
994,1685098367313,473.0,430.0
995,1685098367313,432.0,428.0
996,1685098367313,446.0,452.0
997,1685098367313,355.0,387.0
998,1685098367313,425.0,446.0
999,1685098367313,501.0,459.0
1000,1685098367313,308.0,410.0
1001,1685098367313,412.0,407.0
1002,1685098367313,436.0,447.0
1003,1685098367313,482.0,425.0
1004,1685098367313,329.0,427.0
1005,1685098367313,510.0,447.0
1006,1685098367313,426.0,449.0
1007,1685098367313,519.0,444.0
1008,1685098367313,428.0,446.0
1009,1685098367313,508.0,435.0
1010,1685098367313,431.0,451.0
1011,1685098367313,436.0,423.0
1012,1685098367313,372.0,417.0
1013,1685098367313,441.0,458.0
1014,1685098367313,379.0,412.0
1015,1685098367313,349.0,421.0
1016,1685098367313,553.0,472.0
1017,1685098367313,383.0,432.0
1018,1685098367313,459.0,402.0
1019,1685098367313,398.0,441.0
1020,1685098367313,526.0,448.0
1021,1685098367313,396.0,430.0
1022,1685098367313,502.0,437.0
1023,1685098367313,433.0,462.0
1024,1685098367313,487.0,423.0
1025,1685098367313,418.0,449.0
1026,1685098367313,481.0,428.0
1027,1685098367313,490.0,440.0
1028,1685098367313,445.0,432.0
1029,1685098367313,368.0,404.0
1030,1685098367313,466.0,458.0
1031,1685098367313,449.0,437.0
1032,1685098367313,315.0,387.0
1033,1685098367324,495.0,445.0
1034,1685098367324,409.0,453.0
1035,1685098367324,423.0,405.0
1036,1685098367324,344.0,427.0
1037,1685098367324,478.0,452.0
1038,1685098367324,434.0,442.0
1039,1685098367324,529.0,443.0
1040,1685098367324,441.0,456.0
1041,1685098367324,512.0,434.0
1042,1685098367324,429.0,444.0
1043,1685098367324,465.0,433.0
1044,1685098367324,432.0,433.0
1045,1685098367324,473.0,448.0
1046,1685098367324,403.0,401.0
1047,1685098367324,453.0,444.0
1048,1685098367324,506.0,461.0
1049,1685098367324,308.0,404.0
1050,1685098367324,440.0,413.0
1051,1685098367324,408.0,448.0
1052,1685098367324,442.0,416.0
1053,1685098367324,367.0,435.0
1054,1685098367324,526.0,446.0
1055,1685098367324,420.0,452.0
1056,1685098367324,510.0,431.0
1057,1685098367324,441.0,454.0
1058,1685098367324,466.0,432.0
1059,1685098367324,433.0,449.0
1060,1685098367324,458.0,428.0
1061,1685098367324,402.0,425.0
1062,1685098367324,488.0,461.0
1063,1685098367324,363.0,403.0
1064,1685098367324,370.0,434.0
1065,1685098367324,535.0,473.0
1066,1685098367324,299.0,431.0
1067,1685098367324,392.0,400.0
1068,1685098367324,387.0,439.0
1069,1685098367324,489.0,435.0
1070,1685098367324,389.0,437.0
1071,1685098367324,548.0,439.0
1072,1685098367324,410.0,454.0
1073,1685098367324,474.0,440.0
1074,1685098367324,442.0,444.0
1075,1685098367324,498.0,430.0
1076,1685098367324,465.0,438.0
1077,1685098367324,458.0,435.0
1078,1685098367324,382.0,410.0
1079,1685098367324,471.0,463.0
1080,1685098367324,420.0,432.0
1081,1685098367324,324.0,399.0
1082,1685098367324,512.0,453.0
1083,1685098367324,345.0,452.0
1084,1685098367324,444.0,406.0
1085,1685098367324,369.0,420.0
1086,1685098367324,514.0,447.0
1087,1685098367324,398.0,450.0
1088,1685098367324,514.0,428.0
1089,1685098367324,441.0,452.0
1090,1685098367324,493.0,436.0
1091,1685098367324,436.0,447.0
1092,1685098367324,477.0,421.0
1093,1685098367324,437.0,428.0
1094,1685098367324,457.0,440.0
1095,1685098367324,363.0,404.0
1096,1685098367324,448.0,454.0
1097,1685098367324,503.0,452.0
1098,1685098367324,313.0,397.0
1099,1685098367324,430.0,409.0
1100,1685098367324,402.0,454.0
1101,1685098367324,469.0,417.0
1102,1685098367324,333.0,424.0
1103,1685098367324,530.0,452.0
1104,1685098367324,431.0,451.0
1105,1685098367324,492.0,432.0
1106,1685098367324,399.0,441.0
1107,1685098367324,499.0,438.0
1108,1685098367324,442.0,444.0
1109,1685098367324,441.0,429.0
1110,1685098367324,374.0,425.0
1111,1685098367324,453.0,454.0
1112,1685098367324,383.0,409.0
1113,1685098367324,384.0,427.0
1114,1685098367324,542.0,482.0
1115,1685098367324,357.0,418.0
1116,1685098367324,414.0,404.0
1117,1685098367324,393.0,447.0
1118,1685098367324,484.0,428.0
1119,1685098367324,364.0,427.0
1120,1685098367324,536.0,439.0
1121,1685098367324,391.0,463.0
1122,1685098367324,493.0,425.0
1123,1685098367324,436.0,454.0
1124,1685098367324,485.0,436.0
1125,1685098367324,462.0,443.0
1126,1685098367324,446.0,433.0
1127,1685098367324,388.0,419.0
1128,1685098367324,486.0,457.0
1129,1685098367324,414.0,421.0
1130,1685098367324,336.0,407.0
1131,1685098367324,540.0,437.0
1132,1685098367324,386.0,438.0
1133,1685098367324,408.0,402.0
1134,1685098367324,380.0,435.0
1135,1685098367324,557.0,440.0
1136,1685098367324,370.0,442.0
1137,1685098367324,524.0,453.0
1138,1685098367324,429.0,448.0
1139,1685098367324,484.0,437.0
1140,1685098367324,462.0,446.0
1141,1685098367324,455.0,424.0
1142,1685098367324,434.0,441.0
1143,1685098367324,453.0,445.0
1144,1685098367324,354.0,391.0
1145,1685098367324,495.0,453.0
1146,1685098367324,452.0,446.0
1147,1685098367324,279.0,389.0
1148,1685098367324,469.0,430.0
1149,1685098367324,417.0,449.0
1150,1685098367324,497.0,418.0
1151,1685098367324,384.0,428.0
1152,1685098367324,521.0,443.0
1153,1685098367324,417.0,455.0
1154,1685098367324,510.0,439.0
1155,1685098367324,436.0,447.0
1156,1685098367324,460.0,419.0
1157,1685098367324,439.0,451.0
1158,1685098367324,464.0,432.0
1159,1685098367324,402.0,418.0
1160,1685098367324,495.0,457.0
1161,1685098367324,359.0,397.0
1162,1685098367324,382.0,437.0
1163,1685098367324,491.0,475.0
1164,1685098367324,349.0,421.0
1165,1685098367324,451.0,410.0
1166,1685098367324,412.0,443.0
1167,1685098367324,473.0,434.0
1168,1685098367324,358.0,428.0
1169,1685098367324,505.0,441.0
1170,1685098367324,426.0,454.0
1171,1685098367324,493.0,437.0
1172,1685098367324,434.0,449.0
1173,1685098367324,463.0,427.0
1174,1685098367324,394.0,448.0
1175,1685098367324,431.0,430.0
1176,1685098367324,377.0,405.0
1177,1685098367324,486.0,466.0
1178,1685098367324,433.0,425.0
1179,1685098367324,333.0,406.0
1180,1685098367324,532.0,463.0
1181,1685098367324,370.0,447.0
1182,1685098367324,387.0,391.0
1183,1685098367324,365.0,442.0
1184,1685098367324,515.0,439.0
1185,1685098367324,386.0,429.0
1186,1685098367324,522.0,444.0
1187,1685098367324,439.0,451.0
1188,1685098367324,504.0,432.0
1189,1685098367324,448.0,457.0
1190,1685098367324,464.0,424.0
1191,1685098367324,510.0,452.0
1192,1685098367324,456.0,431.0
1193,1685098367324,346.0,395.0
1194,1685098367324,441.0,455.0
1195,1685098367324,461.0,441.0
1196,1685098367324,285.0,393.0
1197,1685098367324,480.0,432.0
1198,1685098367324,444.0,450.0
1199,1685098367324,408.0,402.0
1200,1685098367324,380.0,430.0
1201,1685098367324,516.0,447.0
1202,1685098367324,409.0,451.0
1203,1685098367324,499.0,436.0
1204,1685098367324,424.0,457.0
1205,1685098367324,503.0,427.0
1206,1685098367324,423.0,444.0
1207,1685098367324,448.0,431.0
1208,1685098367324,420.0,423.0
1209,1685098367324,520.0,444.0
1210,1685098367324,373.0,399.0
1211,1685098367324,428.0,445.0
1212,1685098367324,530.0,457.0
1213,1685098367324,342.0,425.0
1214,1685098367324,429.0,403.0
1215,1685098367324,428.0,459.0
1216,1685098367324,493.0,427.0
1217,1685098367324,378.0,432.0
1218,1685098367324,515.0,445.0
1219,1685098367324,405.0,451.0
1220,1685098367324,481.0,436.0
1221,1685098367324,438.0,448.0
1222,1685098367324,467.0,422.0
1223,1685098367324,436.0,446.0
1224,1685098367324,446.0,429.0
1225,1685098367324,403.0,413.0
1226,1685098367324,470.0,462.0
1227,1685098367324,354.0,421.0
1228,1685098367324,344.0,416.0
1229,1685098367324,521.0,468.0
1230,1685098367324,374.0,448.0
1231,1685098367324,413.0,398.0
1232,1685098367324,378.0,433.0
1233,1685098367324,510.0,435.0
1234,1685098367324,380.0,441.0
1235,1685098367324,516.0,439.0
1236,1685098367324,419.0,453.0
1237,1685098367324,524.0,434.0
1238,1685098367324,461.0,456.0
1239,1685098367324,499.0,427.0
1240,1685098367324,445.0,441.0
1241,1685098367324,452.0,442.0
1242,1685098367324,368.0,393.0
1243,1685098367324,447.0,460.0
1244,1685098367324,452.0,445.0
1245,1685098367324,303.0,390.0
1246,1685098367324,486.0,436.0
1247,1685098367324,385.0,450.0
1248,1685098367324,383.0,399.0
1249,1685098367324,353.0,427.0
1250,1685098367324,520.0,443.0
1251,1685098367324,407.0,454.0
1252,1685098367324,495.0,434.0
1253,1685098367324,431.0,457.0
1254,1685098367324,517.0,434.0
1255,1685098367324,460.0,443.0
1256,1685098367324,414.0,425.0
1257,1685098367324,411.0,430.0
1258,1685098367324,486.0,455.0
1259,1685098367324,368.0,399.0
1260,1685098367324,400.0,438.0
1261,1685098367324,511.0,461.0
1262,1685098367324,309.0,410.0
1263,1685098367324,415.0,409.0
1264,1685098367324,403.0,450.0
1265,1685098367324,455.0,418.0
1266,1685098367324,414.0,431.0
1267,1685098367324,522.0,440.0
1268,1685098367324,441.0,463.0
1269,1685098367324,503.0,431.0
1270,1685098367324,411.0,457.0
1271,1685098367324,498.0,425.0
1272,1685098367324,433.0,446.0
1273,1685098367324,446.0,427.0
1274,1685098367324,381.0,421.0
1275,1685098367324,501.0,458.0
1276,1685098367324,354.0,410.0
1277,1685098367324,371.0,426.0
1278,1685098367324,562.0,480.0
1279,1685098367324,370.0,423.0
1280,1685098367324,417.0,404.0
1281,1685098367324,389.0,444.0
1282,1685098367324,488.0,435.0
1283,1685098367324,368.0,433.0
1284,1685098367324,519.0,440.0
1285,1685098367324,453.0,458.0
1286,1685098367324,503.0,426.0
1287,1685098367324,424.0,453.0
1288,1685098367324,486.0,433.0
1289,1685098367324,433.0,438.0
1290,1685098367324,452.0,435.0
1291,1685098367324,384.0,404.0
1292,1685098367324,471.0,460.0
1293,1685098367324,458.0,436.0
1294,1685098367324,381.0,401.0
1295,1685098367324,494.0,436.0
1296,1685098367324,386.0,443.0
1297,1685098367324,404.0,401.0
1298,1685098367324,365.0,432.0
1299,1685098367324,515.0,437.0
1300,1685098367324,406.0,451.0
1301,1685098367324,511.0,442.0
1302,1685098367324,443.0,455.0
1303,1685098367324,479.0,429.0
1304,1685098367324,463.0,462.0
1305,1685098367324,491.0,435.0
1306,1685098367324,417.0,431.0
1307,1685098367324,462.0,450.0
1308,1685098367324,361.0,400.0
1309,1685098367324,430.0,444.0
1310,1685098367324,497.0,459.0
1311,1685098367324,271.0,401.0
1312,1685098367324,429.0,413.0
1313,1685098367324,441.0,456.0
1314,1685098367324,444.0,421.0
1315,1685098367324,370.0,426.0
1316,1685098367324,504.0,434.0
1317,1685098367324,422.0,460.0
1318,1685098367324,500.0,435.0
1319,1685098367324,429.0,453.0
1320,1685098367324,503.0,434.0
1321,1685098367324,373.0,448.0
1322,1685098367324,468.0,435.0
1323,1685098367324,394.0,417.0
1324,1685098367324,456.0,461.0
1325,1685098367324,397.0,410.0
1326,1685098367324,354.0,416.0
1327,1685098367324,528.0,476.0
1328,1685098367324,363.0,433.0
1329,1685098367324,412.0,398.0
1330,1685098367324,370.0,449.0
1331,1685098367324,519.0,442.0
1332,1685098367324,404.0,443.0
1333,1685098367324,525.0,436.0
1334,1685098367324,438.0,462.0
1335,1685098367324,509.0,432.0
1336,1685098367324,409.0,452.0
1337,1685098367324,470.0,430.0
1338,1685098367324,431.0,435.0
1339,1685098367324,444.0,432.0
1340,1685098367324,376.0,405.0
1341,1685098367324,477.0,464.0
1342,1685098367324,447.0,428.0
1343,1685098367324,367.0,409.0
1344,1685098367324,545.0,449.0
1345,1685098367324,398.0,445.0
1346,1685098367324,403.0,401.0
1347,1685098367324,376.0,428.0
1348,1685098367324,515.0,442.0
1349,1685098367324,404.0,445.0
1350,1685098367324,527.0,441.0
1351,1685098367324,457.0,458.0
1352,1685098367324,576.0,439.0
1353,1685098367324,436.0,446.0
1354,1685098367324,465.0,427.0
1355,1685098367324,442.0,438.0
1356,1685098367324,465.0,444.0
1357,1685098367324,370.0,402.0
1358,1685098367324,451.0,451.0
1359,1685098367324,499.0,454.0
1360,1685098367324,316.0,391.0
1361,1685098367324,483.0,422.0
1362,1685098367324,464.0,452.0
1363,1685098367324,440.0,408.0
1364,1685098367324,365.0,427.0
1365,1685098367324,507.0,441.0
1366,1685098367324,406.0,448.0
1367,1685098367324,498.0,430.0
1368,1685098367324,448.0,454.0
1369,1685098367324,511.0,438.0
1370,1685098367324,460.0,445.0
1371,1685098367324,478.0,432.0
1372,1685098367324,394.0,430.0
1373,1685098367324,454.0,454.0
1374,1685098367324,369.0,401.0
1375,1685098367324,377.0,431.0
1376,1685098367324,522.0,465.0
1377,1685098367324,336.0,423.0
1378,1685098367340,448.0,401.0
1379,1685098367340,411.0,446.0
1380,1685098367340,440.0,428.0
1381,1685098367340,386.0,435.0
1382,1685098367340,524.0,441.0
1383,1685098367340,442.0,451.0
1384,1685098367340,505.0,438.0
1385,1685098367340,436.0,448.0
1386,1685098367340,483.0,429.0
1387,1685098367340,422.0,445.0
1388,1685098367340,430.0,439.0
1389,1685098367340,398.0,413.0
1390,1685098367340,501.0,458.0
1391,1685098367340,408.0,427.0
1392,1685098367340,325.0,406.0
1393,1685098367340,541.0,456.0
1394,1685098367340,400.0,447.0
1395,1685098367340,417.0,401.0
1396,1685098367340,396.0,431.0
1397,1685098367340,511.0,443.0
1398,1685098367340,343.0,452.0
1399,1685098367340,475.0,443.0
1400,1685098367340,373.0,453.0
1401,1685098367340,494.0,434.0
1402,1685098367340,428.0,448.0
1403,1685098367340,464.0,423.0
1404,1685098367340,423.0,436.0
1405,1685098367340,467.0,449.0
1406,1685098367340,377.0,398.0
1407,1685098367340,453.0,452.0
1408,1685098367340,494.0,451.0
1409,1685098367340,330.0,390.0
1410,1685098367340,470.0,417.0
1411,1685098367340,397.0,456.0
1412,1685098367340,439.0,406.0
1413,1685098367340,341.0,424.0
1414,1685098367340,509.0,447.0
1415,1685098367340,410.0,447.0
1416,1685098367340,499.0,437.0
1417,1685098367340,403.0,445.0
1418,1685098367340,497.0,429.0
1419,1685098367340,465.0,446.0
1420,1685098367340,464.0,427.0
1421,1685098367340,420.0,432.0
1422,1685098367340,479.0,457.0
1423,1685098367340,373.0,400.0
1424,1685098367340,395.0,433.0
1425,1685098367340,506.0,464.0
1426,1685098367340,295.0,417.0
1427,1685098367340,407.0,404.0
1428,1685098367340,396.0,447.0
1429,1685098367340,476.0,426.0
1430,1685098367340,374.0,419.0
1431,1685098367340,517.0,446.0
1432,1685098367340,460.0,464.0
1433,1685098367340,511.0,431.0
1434,1685098367340,432.0,454.0
1435,1685098367340,522.0,436.0
1436,1685098367340,483.0,443.0
1437,1685098367340,429.0,427.0
1438,1685098367340,395.0,417.0
1439,1685098367340,484.0,460.0
1440,1685098367340,421.0,418.0
1441,1685098367340,339.0,411.0
1442,1685098367340,503.0,476.0
1443,1685098367340,378.0,432.0
1444,1685098367340,406.0,391.0
1445,1685098367340,397.0,444.0
1446,1685098367340,507.0,433.0
1447,1685098367340,390.0,438.0
1448,1685098367340,527.0,455.0
1449,1685098367340,432.0,454.0
1450,1685098367340,498.0,428.0
1451,1685098367340,408.0,442.0
1452,1685098367340,484.0,433.0
1453,1685098367340,439.0,436.0
1454,1685098367340,457.0,433.0
1455,1685098367340,384.0,406.0
1456,1685098367340,451.0,459.0
1457,1685098367340,444.0,435.0
1458,1685098367340,306.0,390.0
1459,1685098367340,473.0,444.0
1460,1685098367340,424.0,447.0
1461,1685098367340,427.0,406.0
1462,1685098367340,379.0,433.0
1463,1685098367340,515.0,450.0
1464,1685098367340,404.0,450.0
1465,1685098367340,500.0,440.0
1466,1685098367340,424.0,449.0
1467,1685098367340,506.0,432.0
1468,1685098367340,417.0,443.0
1469,1685098367340,518.0,435.0
1470,1685098367340,455.0,429.0
1471,1685098367340,458.0,459.0
1472,1685098367340,370.0,398.0
1473,1685098367340,426.0,439.0
1474,1685098367340,492.0,461.0
1475,1685098367340,326.0,407.0
1476,1685098367340,421.0,401.0
1477,1685098367340,398.0,454.0
1478,1685098367340,452.0,419.0
1479,1685098367340,375.0,436.0
1480,1685098367340,494.0,435.0
1481,1685098367340,423.0,454.0
1482,1685098367340,535.0,434.0
1483,1685098367340,426.0,445.0
1484,1685098367340,494.0,430.0
1485,1685098367340,490.0,451.0
1486,1685098367340,465.0,436.0
1487,1685098367340,411.0,413.0
1488,1685098367340,447.0,457.0
1489,1685098367340,367.0,416.0
1490,1685098367340,356.0,410.0
1491,1685098367340,504.0,467.0
1492,1685098367340,378.0,436.0
1493,1685098367340,432.0,396.0
1494,1685098367340,401.0,448.0
1495,1685098367340,497.0,435.0
1496,1685098367340,370.0,433.0
1497,1685098367340,560.0,442.0
1498,1685098367340,451.0,461.0
1499,1685098367340,514.0,440.0
1500,1685098367340,468.0,447.0
1501,1685098367340,464.0,434.0
1502,1685098367340,438.0,442.0
1503,1685098367340,494.0,437.0
1504,1685098367340,378.0,398.0
1505,1685098367340,490.0,458.0
1506,1685098367340,447.0,429.0
1507,1685098367340,304.0,391.0
1508,1685098367340,489.0,447.0
1509,1685098367340,464.0,447.0
1510,1685098367340,416.0,400.0
1511,1685098367340,357.0,431.0
1512,1685098367340,498.0,443.0
1513,1685098367340,408.0,452.0
1514,1685098367340,439.0,435.0
1515,1685098367340,396.0,459.0
1516,1685098367340,495.0,438.0
1517,1685098367340,435.0,444.0
1518,1685098367340,454.0,425.0
1519,1685098367340,456.0,436.0
1520,1685098367340,474.0,443.0
1521,1685098367340,362.0,402.0
1522,1685098367340,433.0,444.0
1523,1685098367340,498.0,457.0
1524,1685098367340,298.0,394.0
1525,1685098367340,423.0,423.0
1526,1685098367340,392.0,452.0
1527,1685098367340,441.0,415.0
1528,1685098367340,381.0,436.0
1529,1685098367340,497.0,439.0
1530,1685098367340,415.0,451.0
1531,1685098367340,482.0,430.0
1532,1685098367340,430.0,455.0
1533,1685098367340,525.0,435.0
1534,1685098367340,346.0,440.0
1535,1685098367340,450.0,432.0
1536,1685098367340,415.0,420.0
1537,1685098367340,498.0,463.0
1538,1685098367340,379.0,401.0
1539,1685098367340,395.0,419.0
1540,1685098367340,547.0,483.0
1541,1685098367340,359.0,423.0
1542,1685098367340,413.0,405.0
1543,1685098367340,388.0,446.0
1544,1685098367340,410.0,440.0
1545,1685098367340,383.0,430.0
1546,1685098367340,494.0,435.0
1547,1685098367340,416.0,454.0
1548,1685098367340,495.0,431.0
1549,1685098367340,442.0,454.0
1550,1685098367340,502.0,432.0
1551,1685098367340,436.0,440.0
1552,1685098367340,453.0,443.0
1553,1685098367340,397.0,409.0
1554,1685098367340,486.0,462.0
1555,1685098367340,405.0,432.0
1556,1685098367340,341.0,401.0
1557,1685098367340,499.0,454.0
1558,1685098367340,397.0,436.0
1559,1685098367340,397.0,398.0
1560,1685098367340,369.0,430.0
1561,1685098367340,496.0,438.0
1562,1685098367340,512.0,456.0
1563,1685098367340,557.0,441.0
1564,1685098367340,424.0,454.0
1565,1685098367340,510.0,441.0
1566,1685098367340,426.0,442.0
1567,1685098367340,469.0,432.0
1568,1685098367340,425.0,434.0
1569,1685098367340,453.0,444.0
1570,1685098367340,370.0,402.0
1571,1685098367340,435.0,446.0
1572,1685098367340,435.0,452.0
1573,1685098367340,312.0,394.0
1574,1685098367340,483.0,420.0
1575,1685098367340,407.0,456.0
1576,1685098367340,430.0,402.0
1577,1685098367340,363.0,432.0
1578,1685098367340,512.0,447.0
1579,1685098367340,411.0,461.0
1580,1685098367340,503.0,432.0
1581,1685098367340,428.0,457.0
1582,1685098367340,476.0,439.0
1583,1685098367340,450.0,435.0
1584,1685098367340,449.0,433.0
1585,1685098367340,420.0,424.0
1586,1685098367340,508.0,463.0
1587,1685098367340,361.0,392.0
1588,1685098367355,409.0,434.0
1589,1685098367355,535.0,477.0
1590,1685098367355,344.0,406.0
1591,1685098367355,377.0,404.0
1592,1685098367387,403.0,450.0
1593,1685098367387,455.0,422.0
1594,1685098367387,381.0,444.0
1595,1685098367419,503.0,443.0
1596,1685098367419,457.0,468.0
1597,1685098367419,492.0,424.0
1598,1685098367419,405.0,442.0
1599,1685098367456,506.0,430.0
1600,1685098367456,486.0,437.0
1601,1685098367456,423.0,436.0
1602,1685098367487,397.0,417.0
1603,1685098367487,491.0,458.0
1604,1685098367487,412.0,428.0
1605,1685098367487,345.0,408.0
1606,1685098367521,519.0,473.0
1607,1685098367521,379.0,429.0
1608,1685098367521,395.0,396.0
1609,1685098367553,418.0,445.0
1610,1685098367553,460.0,430.0
1611,1685098367553,366.0,443.0
1612,1685098367553,515.0,447.0
1613,1685098367588,434.0,464.0
1614,1685098367588,501.0,430.0
1615,1685098367588,419.0,446.0
1616,1685098367612,470.0,437.0
1617,1685098367612,419.0,429.0
1618,1685098367612,470.0,440.0
1619,1685098367612,381.0,405.0
1620,1685098367651,464.0,456.0
1621,1685098367651,433.0,437.0
1622,1685098367651,300.0,393.0
1623,1685098367651,469.0,427.0
1624,1685098367690,402.0,448.0
1625,1685098367690,417.0,402.0
1626,1685098367690,418.0,432.0
1627,1685098367721,496.0,441.0
1628,1685098367721,417.0,449.0
1629,1685098367721,505.0,440.0
1630,1685098367721,426.0,456.0
1631,1685098367755,500.0,439.0
1632,1685098367755,441.0,450.0
1633,1685098367755,473.0,428.0
1634,1685098367787,460.0,432.0
1635,1685098367787,496.0,453.0
1636,1685098367787,341.0,392.0
1637,1685098367787,416.0,432.0
1638,1685098367819,496.0,465.0
1639,1685098367819,315.0,406.0
1640,1685098367819,420.0,405.0
1641,1685098367855,419.0,452.0
1642,1685098367855,442.0,427.0
1643,1685098367855,402.0,437.0
1644,1685098367855,540.0,439.0
1645,1685098367888,440.0,457.0
1646,1685098367888,503.0,431.0
1647,1685098367888,409.0,441.0
1648,1685098367913,485.0,433.0
1649,1685098367913,434.0,442.0
1650,1685098367913,445.0,432.0
1651,1685098367913,406.0,414.0
1652,1685098367945,486.0,461.0
1653,1685098367945,395.0,412.0
1654,1685098367945,369.0,419.0
1655,1685098367945,523.0,472.0
1656,1685098367989,380.0,428.0
1657,1685098367989,408.0,405.0
1658,1685098367989,382.0,441.0
1659,1685098368020,497.0,446.0
1660,1685098368020,395.0,430.0
1661,1685098368020,520.0,436.0
1662,1685098368020,430.0,462.0
1663,1685098368056,497.0,430.0
1664,1685098368056,414.0,451.0
1665,1685098368056,476.0,428.0
1666,1685098368088,480.0,446.0
1667,1685098368088,521.0,439.0
1668,1685098368088,385.0,401.0
1669,1685098368088,486.0,458.0
1670,1685098368123,431.0,434.0
1671,1685098368123,334.0,397.0
1672,1685098368123,490.0,451.0
1673,1685098368151,404.0,449.0
1674,1685098368151,390.0,392.0
1675,1685098368151,368.0,435.0
1676,1685098368151,478.0,445.0
1677,1685098368182,376.0,435.0
1678,1685098368182,497.0,445.0
1679,1685098368182,434.0,466.0
1680,1685098368213,504.0,442.0
1681,1685098368213,408.0,445.0
1682,1685098368213,469.0,431.0
1683,1685098368213,417.0,433.0
1684,1685098368255,467.0,445.0
1685,1685098368255,373.0,397.0
1686,1685098368255,463.0,449.0
1687,1685098368255,481.0,451.0
1688,1685098368290,298.0,391.0
1689,1685098368290,462.0,428.0
1690,1685098368290,408.0,443.0
1691,1685098368321,447.0,407.0
1692,1685098368321,365.0,422.0
1693,1685098368321,499.0,443.0
1694,1685098368321,410.0,456.0
1695,1685098368356,497.0,436.0
1696,1685098368356,419.0,455.0
1697,1685098368356,504.0,434.0
1698,1685098368388,440.0,446.0
1699,1685098368388,460.0,437.0
1700,1685098368388,419.0,414.0
1701,1685098368388,475.0,459.0
1702,1685098368423,403.0,389.0
1703,1685098368423,439.0,431.0
1704,1685098368423,519.0,464.0
1705,1685098368451,351.0,419.0
1706,1685098368451,417.0,403.0
1707,1685098368451,422.0,442.0
1708,1685098368451,466.0,432.0
1709,1685098368490,390.0,439.0
1710,1685098368490,535.0,435.0
1711,1685098368490,430.0,467.0
1712,1685098368513,500.0,430.0
1713,1685098368513,428.0,453.0
1714,1685098368513,431.0,425.0
1715,1685098368513,437.0,443.0
1716,1685098368556,457.0,443.0
1717,1685098368556,391.0,407.0
1718,1685098368557,477.0,458.0
1719,1685098368557,409.0,421.0
1720,1685098368592,350.0,411.0
1721,1685098368592,459.0,464.0
1722,1685098368592,393.0,437.0
1723,1685098368622,372.0,402.0
1724,1685098368622,441.0,439.0
1725,1685098368622,518.0,434.0
1726,1685098368622,396.0,449.0
1727,1685098368657,517.0,438.0
1728,1685098368657,389.0,458.0
1729,1685098368657,490.0,424.0
1730,1685098368688,431.0,455.0
1731,1685098368688,451.0,429.0
1732,1685098368688,406.0,433.0
1733,1685098368688,463.0,449.0
1734,1685098368720,368.0,396.0
1735,1685098368720,486.0,461.0
1736,1685098368720,459.0,447.0
1737,1685098368756,315.0,391.0
1738,1685098368756,461.0,434.0
1739,1685098368756,440.0,448.0
1740,1685098368756,392.0,409.0
1741,1685098368789,327.0,424.0
1742,1685098368789,504.0,442.0
1743,1685098368789,418.0,458.0
1744,1685098368819,482.0,424.0
1745,1685098368819,428.0,453.0
1746,1685098368819,506.0,443.0
1747,1685098368819,436.0,448.0
1748,1685098368855,496.0,432.0
1749,1685098368855,423.0,430.0
1750,1685098368855,420.0,451.0
1751,1685098368855,372.0,402.0
1752,1685098368891,411.0,433.0
1753,1685098368891,495.0,459.0
1754,1685098368891,320.0,402.0
1755,1685098368924,417.0,412.0
1756,1685098368924,404.0,446.0
1757,1685098368924,448.0,415.0
1758,1685098368924,361.0,431.0
1759,1685098368957,482.0,437.0
1760,1685098368957,457.0,467.0
1761,1685098368957,506.0,427.0
1762,1685098368990,420.0,459.0
1763,1685098368990,472.0,439.0
1764,1685098368990,429.0,444.0
1765,1685098368990,445.0,427.0
1766,1685098369022,423.0,424.0
1767,1685098369022,487.0,455.0
1768,1685098369022,367.0,415.0
1769,1685098369056,341.0,419.0
1770,1685098369056,541.0,475.0
1771,1685098369056,341.0,422.0
1772,1685098369056,414.0,399.0
1773,1685098369085,417.0,450.0
1774,1685098369085,476.0,438.0
1775,1685098369085,369.0,436.0
1776,1685098369118,545.0,446.0
1777,1685098369118,421.0,460.0
1778,1685098369118,455.0,423.0
1779,1685098369118,413.0,447.0
1780,1685098369157,488.0,429.0
1781,1685098369157,423.0,437.0
1782,1685098369157,474.0,433.0
1783,1685098369157,373.0,402.0
1784,1685098369192,490.0,468.0
1785,1685098369192,440.0,426.0
1786,1685098369192,317.0,407.0
1787,1685098369223,489.0,448.0
1788,1685098369223,405.0,441.0
1789,1685098369223,406.0,403.0
1790,1685098369223,376.0,431.0
1791,1685098369259,514.0,437.0
1792,1685098369259,384.0,447.0
1793,1685098369259,490.0,446.0
1794,1685098369290,452.0,454.0
1795,1685098369290,544.0,432.0
1796,1685098369290,444.0,446.0
1797,1685098369290,475.0,435.0
1798,1685098369323,415.0,426.0
1799,1685098369323,459.0,447.0
1800,1685098369323,367.0,404.0
1801,1685098369354,409.0,451.0
1802,1685098369354,452.0,451.0
1803,1685098369354,313.0,392.0
1804,1685098369354,509.0,428.0
1805,1685098369386,419.0,446.0
1806,1685098369386,438.0,412.0
1807,1685098369386,374.0,426.0
1808,1685098369416,528.0,433.0
1809,1685098369416,423.0,458.0
1810,1685098369416,531.0,433.0
1811,1685098369416,415.0,453.0
1812,1685098369448,474.0,446.0
1813,1685098369448,441.0,445.0
1814,1685098369448,469.0,439.0
1815,1685098369448,416.0,417.0
1816,1685098369492,472.0,459.0
1817,1685098369492,391.0,398.0
1818,1685098369492,402.0,426.0
1819,1685098369524,537.0,473.0
1820,1685098369524,358.0,413.0
1821,1685098369524,396.0,404.0
1822,1685098369524,400.0,444.0
1823,1685098369559,484.0,432.0
1824,1685098369559,386.0,439.0
1825,1685098369559,500.0,435.0
1826,1685098369591,434.0,464.0
1827,1685098369591,491.0,428.0
1828,1685098369591,428.0,444.0
1829,1685098369591,450.0,437.0
1830,1685098369622,400.0,442.0
1831,1685098369622,459.0,429.0
1832,1685098369622,383.0,409.0
1833,1685098369654,474.0,462.0
1834,1685098369654,422.0,421.0
1835,1685098369654,348.0,405.0
1836,1685098369654,541.0,478.0
1837,1685098369687,398.0,437.0
1838,1685098369687,441.0,397.0
1839,1685098369687,392.0,443.0
1840,1685098369718,488.0,437.0
1841,1685098369718,348.0,441.0
1842,1685098369718,508.0,439.0
1843,1685098369718,413.0,465.0
1844,1685098369749,484.0,429.0
1845,1685098369749,404.0,443.0
1846,1685098369749,469.0,429.0
1847,1685098369749,437.0,437.0
1848,1685098369793,454.0,437.0
1849,1685098369793,372.0,398.0
1850,1685098369793,554.0,463.0
1851,1685098369824,462.0,441.0
1852,1685098369824,251.0,392.0
1853,1685098369824,477.0,442.0
1854,1685098369824,417.0,449.0
1855,1685098369859,405.0,399.0
1856,1685098369859,366.0,428.0
1857,1685098369859,508.0,449.0
1858,1685098369891,398.0,441.0
1859,1685098369891,496.0,437.0
1860,1685098369891,480.0,457.0
1861,1685098369891,489.0,433.0
1862,1685098369926,423.0,444.0
1863,1685098369926,470.0,431.0
1864,1685098369926,433.0,428.0
1865,1685098369959,479.0,455.0
1866,1685098369959,370.0,402.0
1867,1685098369959,432.0,448.0
1868,1685098369959,502.0,459.0
1869,1685098369984,313.0,403.0
1870,1685098369984,478.0,414.0
1871,1685098369984,399.0,438.0
1872,1685098370015,425.0,413.0
1873,1685098370015,376.0,429.0
1874,1685098370015,520.0,441.0
1875,1685098370015,423.0,456.0
1876,1685098370047,508.0,434.0
1877,1685098370047,431.0,461.0
1878,1685098370047,496.0,436.0
1879,1685098370047,459.0,444.0
1880,1685098370094,504.0,440.0
1881,1685098370094,412.0,411.0
1882,1685098370094,461.0,461.0
1883,1685098370125,370.0,408.0
1884,1685098370125,372.0,423.0
1885,1685098370125,529.0,468.0
1886,1685098370125,369.0,423.0
1887,1685098370161,408.0,404.0
1888,1685098370161,395.0,447.0
1889,1685098370161,484.0,435.0
1890,1685098370192,380.0,443.0
1891,1685098370192,523.0,444.0
1892,1685098370192,431.0,460.0
1893,1685098370192,493.0,435.0
1894,1685098370223,416.0,448.0
1895,1685098370223,467.0,428.0
1896,1685098370223,422.0,444.0
1897,1685098370254,468.0,437.0
1898,1685098370254,328.0,401.0
1899,1685098370254,471.0,460.0
1900,1685098370254,444.0,428.0
1901,1685098370286,333.0,402.0
1902,1685098370286,497.0,450.0
1903,1685098370286,425.0,445.0
1904,1685098370317,428.0,401.0
1905,1685098370317,383.0,435.0
1906,1685098370317,487.0,445.0
1907,1685098370317,381.0,444.0
1908,1685098370348,491.0,434.0
1909,1685098370348,432.0,450.0
1910,1685098370348,492.0,431.0
1911,1685098370348,433.0,448.0
1912,1685098370395,462.0,419.0
1913,1685098370395,477.0,441.0
1914,1685098370395,481.0,446.0
1915,1685098370426,358.0,397.0
1916,1685098370426,429.0,456.0
1917,1685098370426,485.0,454.0
1918,1685098370426,302.0,390.0
1919,1685098370460,456.0,429.0
1920,1685098370460,404.0,444.0
1921,1685098370460,424.0,404.0
1922,1685098370492,387.0,427.0
1923,1685098370492,531.0,446.0
1924,1685098370492,435.0,457.0
1925,1685098370492,522.0,434.0
1926,1685098370523,424.0,448.0
1927,1685098370523,503.0,441.0
1928,1685098370523,436.0,444.0
1929,1685098370560,464.0,433.0
1930,1685098370560,380.0,432.0
1931,1685098370560,472.0,463.0
1932,1685098370560,340.0,402.0
1933,1685098370594,411.0,433.0
1934,1685098370594,513.0,461.0
1935,1685098370594,319.0,416.0
1936,1685098370618,383.0,407.0
1937,1685098370618,410.0,448.0
1938,1685098370618,467.0,417.0
1939,1685098370618,372.0,426.0
1940,1685098370649,539.0,443.0
1941,1685098370649,428.0,456.0
1942,1685098370649,493.0,430.0
1943,1685098370649,434.0,455.0
1944,1685098370695,489.0,436.0
1945,1685098370695,450.0,441.0
1946,1685098370695,474.0,435.0
1947,1685098370726,377.0,415.0
1948,1685098370726,456.0,459.0
1949,1685098370726,404.0,416.0
1950,1685098370726,349.0,412.0
1951,1685098370763,535.0,473.0
1952,1685098370763,383.0,438.0
1953,1685098370763,417.0,403.0
1954,1685098370793,403.0,446.0
1955,1685098370793,549.0,440.0
1956,1685098370793,364.0,443.0
1957,1685098370793,506.0,438.0
1958,1685098370825,422.0,458.0
1959,1685098370825,490.0,432.0
1960,1685098370825,429.0,458.0
1961,1685098370856,466.0,429.0
1962,1685098370856,416.0,430.0
1963,1685098370856,409.0,447.0
1964,1685098370856,441.0,403.0
1965,1685098370887,490.0,461.0
1966,1685098370887,449.0,438.0
1967,1685098370887,324.0,403.0
1968,1685098370919,484.0,448.0
1969,1685098370919,388.0,436.0
1970,1685098370919,420.0,407.0
1971,1685098370919,366.0,427.0
1972,1685098370951,500.0,441.0
1973,1685098370951,408.0,454.0
1974,1685098370951,495.0,439.0
1975,1685098370951,406.0,452.0
1976,1685098370995,503.0,438.0
1977,1685098370995,481.0,450.0
1978,1685098370995,448.0,422.0
1979,1685098371027,423.0,430.0
1980,1685098371027,469.0,454.0
1981,1685098371027,364.0,402.0
1982,1685098371027,390.0,446.0
1983,1685098371062,458.0,460.0
1984,1685098371062,312.0,393.0
1985,1685098371062,429.0,418.0
1986,1685098371093,408.0,450.0
1987,1685098371093,457.0,415.0
1988,1685098371093,363.0,424.0
1989,1685098371093,479.0,442.0
1990,1685098371125,415.0,462.0
1991,1685098371125,471.0,433.0
1992,1685098371125,464.0,457.0
1993,1685098371156,503.0,433.0
1994,1685098371156,442.0,451.0
1995,1685098371156,448.0,433.0
1996,1685098371156,408.0,418.0
1997,1685098371187,497.0,463.0
1998,1685098371187,376.0,404.0
1999,1685098371187,361.0,425.0
2000,1685098371219,501.0,487.0
2001,1685098371219,343.0,416.0
2002,1685098371219,389.0,401.0
2003,1685098371219,375.0,448.0
2004,1685098371250,479.0,432.0
2005,1685098371250,381.0,435.0
2006,1685098371250,507.0,437.0
2007,1685098371250,429.0,469.0
2008,1685098371295,509.0,427.0
2009,1685098371295,446.0,448.0
2010,1685098371295,485.0,436.0
2011,1685098371327,438.0,444.0
2012,1685098371327,420.0,437.0
2013,1685098371327,392.0,410.0
2014,1685098371327,485.0,465.0
2015,1685098371363,419.0,426.0
2016,1685098371363,336.0,404.0
2017,1685098371363,514.0,463.0
2018,1685098371394,390.0,443.0
2019,1685098371394,401.0,403.0
2020,1685098371394,342.0,434.0
2021,1685098371394,480.0,441.0
2022,1685098371425,379.0,443.0
2023,1685098371425,529.0,439.0
2024,1685098371425,468.0,460.0
2025,1685098371457,474.0,423.0
2026,1685098371457,418.0,449.0
2027,1685098371457,477.0,437.0
2028,1685098371457,448.0,423.0
2029,1685098371490,452.0,451.0
2030,1685098371490,376.0,397.0
2031,1685098371490,442.0,455.0
2032,1685098371521,481.0,443.0
2033,1685098371521,295.0,389.0
2034,1685098371521,475.0,433.0
2035,1685098371521,418.0,441.0
2036,1685098371552,426.0,416.0
2037,1685098371552,381.0,431.0
2038,1685098371552,516.0,433.0
2039,1685098371552,399.0,453.0
2040,1685098371598,506.0,440.0
2041,1685098371598,477.0,453.0
2042,1685098371598,518.0,430.0
2043,1685098371630,420.0,450.0
2044,1685098371630,469.0,433.0
2045,1685098371630,415.0,427.0
2046,1685098371630,493.0,452.0
2047,1685098371664,377.0,398.0
2048,1685098371664,435.0,439.0
2049,1685098371664,508.0,464.0
2050,1685098371698,310.0,408.0
2051,1685098371698,432.0,412.0
2052,1685098371698,407.0,443.0
2053,1685098371698,458.0,425.0
2054,1685098371728,384.0,438.0
2055,1685098371728,512.0,446.0
2056,1685098371728,405.0,457.0
2057,1685098371759,500.0,440.0
2058,1685098371759,410.0,445.0
2059,1685098371759,503.0,436.0
2060,1685098371759,479.0,448.0
2061,1685098371792,468.0,433.0
2062,1685098371792,407.0,423.0
2063,1685098371792,483.0,458.0
2064,1685098371822,383.0,407.0
2065,1685098371822,365.0,422.0
2066,1685098371822,529.0,472.0
2067,1685098371822,411.0,424.0
2068,1685098371854,453.0,400.0
2069,1685098371854,394.0,443.0
2070,1685098371854,453.0,433.0
2071,1685098371854,369.0,431.0
2072,1685098371897,510.0,434.0
2073,1685098371897,429.0,465.0
2074,1685098371897,510.0,442.0
2075,1685098371928,435.0,445.0
2076,1685098371928,497.0,434.0
2077,1685098371928,448.0,447.0
2078,1685098371928,481.0,431.0
2079,1685098371964,431.0,406.0
2080,1685098371964,485.0,468.0
2081,1685098371964,426.0,427.0
2082,1685098371995,325.0,399.0
2083,1685098371995,507.0,460.0
2084,1685098371995,405.0,443.0
2085,1685098371995,423.0,400.0
2086,1685098372026,380.0,437.0
2087,1685098372026,518.0,452.0
2088,1685098372026,380.0,435.0
2089,1685098372060,564.0,449.0
2090,1685098372060,450.0,452.0
2091,1685098372060,512.0,441.0
2092,1685098372060,421.0,442.0
2093,1685098372090,477.0,422.0
2094,1685098372090,436.0,437.0
2095,1685098372090,445.0,441.0
2096,1685098372121,350.0,395.0
2097,1685098372121,462.0,455.0
2098,1685098372121,487.0,455.0
2099,1685098372121,315.0,389.0
2100,1685098372153,432.0,436.0
2101,1685098372153,412.0,444.0
2102,1685098372153,385.0,409.0
2103,1685098372153,346.0,427.0
2104,1685098372198,508.0,447.0
2105,1685098372198,417.0,448.0
2106,1685098372198,502.0,436.0
2107,1685098372229,429.0,455.0
2108,1685098372229,474.0,431.0
2109,1685098372229,388.0,446.0
2110,1685098372229,440.0,425.0
2111,1685098372265,462.0,427.0
2112,1685098372265,480.0,460.0
2113,1685098372265,367.0,402.0
2114,1685098372297,428.0,443.0
2115,1685098372297,529.0,469.0
2116,1685098372297,338.0,414.0
2117,1685098372297,434.0,421.0
2118,1685098372328,418.0,441.0
2119,1685098372328,449.0,421.0
2120,1685098372328,353.0,427.0
2121,1685098372359,521.0,437.0
2122,1685098372359,440.0,457.0
2123,1685098372359,508.0,431.0
2124,1685098372359,423.0,453.0
2125,1685098372390,495.0,427.0
2126,1685098372390,438.0,444.0
2127,1685098372390,450.0,434.0
2128,1685098372421,431.0,417.0
2129,1685098372421,507.0,459.0
2130,1685098372421,387.0,411.0
2131,1685098372421,355.0,417.0
2132,1685098372453,530.0,468.0
2133,1685098372453,375.0,432.0
2134,1685098372453,411.0,390.0
2135,1685098372453,389.0,440.0
2136,1685098372498,496.0,435.0
2137,1685098372498,401.0,439.0
2138,1685098372498,527.0,439.0
2139,1685098372531,413.0,460.0
2140,1685098372531,540.0,439.0
2141,1685098372531,443.0,454.0
2142,1685098372531,475.0,428.0
2143,1685098372566,440.0,440.0
2144,1685098372566,443.0,437.0
2145,1685098372566,358.0,398.0
2146,1685098372597,453.0,459.0
2147,1685098372597,437.0,432.0
2148,1685098372597,336.0,399.0
2149,1685098372597,502.0,451.0
2150,1685098372628,411.0,439.0
2151,1685098372628,443.0,411.0
2152,1685098372628,371.0,430.0
2153,1685098372660,527.0,454.0
2154,1685098372660,406.0,459.0
2155,1685098372660,473.0,437.0
2156,1685098372660,416.0,454.0
2157,1685098372723,509.0,432.0
2158,1685098372723,433.0,448.0
2159,1685098372723,454.0,418.0
2160,1685098372732,440.0,439.0
2161,1685098372732,483.0,445.0
2162,1685098372732,373.0,403.0
2163,1685098372732,454.0,456.0
2164,1685098372761,501.0,457.0
2165,1685098372761,281.0,386.0
2166,1685098372761,490.0,421.0
2167,1685098372761,417.0,453.0
2168,1685098372800,434.0,410.0
2169,1685098372800,346.0,425.0
2170,1685098372800,518.0,452.0
2171,1685098372831,416.0,455.0
2172,1685098372831,494.0,428.0
2173,1685098372831,435.0,455.0
2174,1685098372831,480.0,442.0
2175,1685098372867,459.0,443.0
2176,1685098372867,459.0,431.0
2177,1685098372867,408.0,428.0
2178,1685098372899,504.0,457.0
2179,1685098372899,365.0,395.0
2180,1685098372899,399.0,443.0
2181,1685098372899,535.0,473.0
2182,1685098372930,283.0,406.0
2183,1685098372930,423.0,407.0
2184,1685098372930,387.0,451.0
2185,1685098372961,473.0,422.0
2186,1685098372961,373.0,426.0
2187,1685098372961,512.0,436.0
2188,1685098372961,432.0,458.0
2189,1685098372999,501.0,431.0
2190,1685098372999,436.0,455.0
2191,1685098372999,498.0,429.0
2192,1685098373023,452.0,442.0
2193,1685098373023,421.0,435.0
2194,1685098373023,395.0,411.0
2195,1685098373023,481.0,462.0
2196,1685098373066,387.0,415.0
2197,1685098373066,341.0,412.0
2198,1685098373066,543.0,469.0
2199,1685098373066,366.0,438.0
2200,1685098373099,430.0,398.0
2201,1685098373099,388.0,439.0
2202,1685098373099,465.0,437.0
2203,1685098373132,399.0,442.0
2204,1685098373132,533.0,445.0
2205,1685098373132,428.0,458.0
2206,1685098373132,491.0,430.0
2207,1685098373167,426.0,451.0
2208,1685098373167,469.0,429.0
2209,1685098373167,392.0,438.0
2210,1685098373199,451.0,442.0
2211,1685098373199,368.0,394.0
2212,1685098373199,436.0,462.0
2213,1685098373199,442.0,435.0
2214,1685098373231,318.0,403.0
2215,1685098373231,495.0,441.0
2216,1685098373231,409.0,453.0
2217,1685098373261,426.0,411.0
2218,1685098373261,396.0,420.0
2219,1685098373261,519.0,444.0
2220,1685098373261,430.0,448.0
2221,1685098373293,517.0,437.0
2222,1685098373293,435.0,451.0
2223,1685098373293,501.0,443.0
2224,1685098373325,447.0,450.0
2225,1685098373325,465.0,423.0
2226,1685098373325,424.0,433.0
2227,1685098373325,429.0,452.0
2228,1685098373357,353.0,394.0
2229,1685098373357,406.0,447.0
2230,1685098373357,473.0,468.0
2231,1685098373357,315.0,400.0
2232,1685098373401,429.0,411.0
2233,1685098373401,412.0,448.0
2234,1685098373401,430.0,419.0
2235,1685098373432,355.0,419.0
2236,1685098373432,523.0,445.0
2237,1685098373432,425.0,459.0
2238,1685098373432,507.0,439.0
2239,1685098373467,416.0,447.0
2240,1685098373467,462.0,434.0
2241,1685098373467,383.0,445.0
2242,1685098373501,449.0,423.0
2243,1685098373501,418.0,425.0
2244,1685098373501,500.0,466.0
2245,1685098373501,394.0,399.0
2246,1685098373531,363.0,428.0
2247,1685098373531,529.0,476.0
2248,1685098373531,347.0,422.0
2249,1685098373562,393.0,391.0
2250,1685098373562,390.0,449.0
2251,1685098373562,473.0,424.0
2252,1685098373562,309.0,422.0
2253,1685098373594,489.0,450.0
2254,1685098373594,469.0,459.0
2255,1685098373594,489.0,432.0
2256,1685098373634,426.0,441.0
2257,1685098373634,488.0,436.0
2258,1685098373634,438.0,449.0
2259,1685098373634,435.0,422.0
2260,1685098373668,375.0,422.0
2261,1685098373668,480.0,460.0
2262,1685098373668,410.0,421.0
2263,1685098373668,345.0,408.0
2264,1685098373701,549.0,470.0
2265,1685098373701,382.0,432.0
2266,1685098373701,413.0,402.0
2267,1685098373733,392.0,437.0
2268,1685098373733,521.0,439.0
2269,1685098373733,385.0,440.0
2270,1685098373733,526.0,448.0
2271,1685098373769,455.0,458.0
2272,1685098373769,463.0,424.0
2273,1685098373769,429.0,450.0
2274,1685098373801,496.0,433.0
2275,1685098373801,412.0,436.0
2276,1685098373801,434.0,440.0
2277,1685098373801,364.0,403.0
2278,1685098373833,470.0,461.0
2279,1685098373833,466.0,440.0
2280,1685098373833,319.0,403.0
2281,1685098373867,473.0,436.0
2282,1685098373867,324.0,445.0
2283,1685098373868,429.0,407.0
2284,1685098373868,386.0,431.0
2285,1685098373901,502.0,439.0
2286,1685098373901,426.0,452.0
2287,1685098373901,485.0,430.0
2288,1685098373928,401.0,447.0
2289,1685098373928,502.0,435.0
2290,1685098373928,429.0,447.0
2291,1685098373928,470.0,434.0
2292,1685098373959,378.0,427.0
2293,1685098373959,459.0,450.0
2294,1685098373959,377.0,404.0
2295,1685098373959,447.0,450.0
2296,1685098374002,500.0,464.0
2297,1685098374002,318.0,394.0
2298,1685098374002,449.0,422.0
2299,1685098374033,438.0,444.0
2300,1685098374033,426.0,416.0
2301,1685098374033,336.0,416.0
2302,1685098374033,527.0,442.0
2303,1685098374068,419.0,460.0
2304,1685098374068,517.0,431.0
2305,1685098374068,433.0,454.0
2306,1685098374100,497.0,431.0
2307,1685098374100,452.0,447.0
2308,1685098374100,441.0,440.0
2309,1685098374100,384.0,414.0
2310,1685098374131,437.0,463.0
2311,1685098374131,375.0,405.0
2312,1685098374131,379.0,427.0
2313,1685098374163,542.0,476.0
2314,1685098374163,348.0,420.0
2315,1685098374163,405.0,404.0
2316,1685098374163,399.0,442.0
2317,1685098374196,502.0,435.0
2318,1685098374196,376.0,433.0
2319,1685098374196,456.0,430.0
2320,1685098374225,440.0,461.0
2321,1685098374225,543.0,431.0
2322,1685098374225,432.0,442.0
2323,1685098374225,486.0,432.0
2324,1685098374269,443.0,447.0
2325,1685098374269,443.0,427.0
2326,1685098374269,356.0,400.0
2327,1685098374269,462.0,453.0
2328,1685098374302,418.0,429.0
2329,1685098374302,358.0,399.0
2330,1685098374302,516.0,464.0
2331,1685098374335,415.0,437.0
2332,1685098374335,417.0,396.0
2333,1685098374335,393.0,439.0
2334,1685098374335,537.0,443.0
2335,1685098374369,383.0,439.0
2336,1685098374369,507.0,434.0
2337,1685098374369,412.0,455.0
2338,1685098374400,521.0,427.0
2339,1685098374400,394.0,445.0
2340,1685098374400,469.0,428.0
2341,1685098374400,416.0,430.0
2342,1685098374431,440.0,444.0
2343,1685098374431,329.0,395.0
2344,1685098374431,476.0,463.0
2345,1685098374463,472.0,439.0
2346,1685098374463,317.0,401.0
2347,1685098374463,485.0,437.0
2348,1685098374463,396.0,444.0
2349,1685098374503,415.0,404.0
2350,1685098374503,350.0,423.0
2351,1685098374503,501.0,444.0
2352,1685098374536,419.0,456.0
2353,1685098374536,500.0,424.0
2354,1685098374536,448.0,461.0
2355,1685098374536,504.0,432.0
2356,1685098374569,460.0,445.0
2357,1685098374569,464.0,433.0
2358,1685098374569,442.0,427.0
2359,1685098374569,488.0,448.0
2360,1685098374603,378.0,403.0
2361,1685098374603,425.0,446.0
2362,1685098374603,505.0,464.0
2363,1685098374635,314.0,403.0
2364,1685098374635,448.0,416.0
2365,1685098374635,415.0,444.0
2366,1685098374635,465.0,408.0
2367,1685098374669,362.0,429.0
2368,1685098374669,516.0,445.0
2369,1685098374669,422.0,455.0
2370,1685098374702,531.0,435.0
2371,1685098374702,463.0,445.0
2372,1685098374702,476.0,438.0
2373,1685098374702,374.0,448.0
2374,1685098374732,446.0,432.0
2375,1685098374732,416.0,411.0
2376,1685098374732,478.0,451.0
2377,1685098374764,369.0,409.0
2378,1685098374764,397.0,430.0
2379,1685098374764,503.0,464.0
2380,1685098374764,311.0,425.0
2381,1685098374802,459.0,409.0
2382,1685098374802,408.0,437.0
2383,1685098374803,488.0,433.0
2384,1685098374827,381.0,437.0
2385,1685098374827,525.0,432.0
2386,1685098374827,429.0,459.0
2387,1685098374827,496.0,432.0
2388,1685098374858,421.0,447.0
2389,1685098374858,472.0,425.0
2390,1685098374858,444.0,441.0
2391,1685098374858,366.0,433.0
2392,1685098374903,372.0,405.0
2393,1685098374903,481.0,462.0
2394,1685098374903,438.0,429.0
2395,1685098374935,336.0,398.0
2396,1685098374935,525.0,465.0
2397,1685098374935,400.0,444.0
2398,1685098374935,410.0,396.0
2399,1685098374971,359.0,436.0
2400,1685098374971,532.0,449.0
2401,1685098374971,413.0,443.0
2402,1685098375003,508.0,436.0
2403,1685098375003,411.0,460.0
2404,1685098375003,498.0,439.0
2405,1685098375003,428.0,441.0
2406,1685098375037,464.0,432.0
2407,1685098375037,431.0,435.0
2408,1685098375037,464.0,447.0
2409,1685098375070,375.0,399.0
2410,1685098375070,443.0,453.0
2411,1685098375070,432.0,442.0
2412,1685098375070,287.0,392.0
2413,1685098375103,450.0,429.0
2414,1685098375103,426.0,452.0
2415,1685098375103,436.0,402.0
2416,1685098375136,356.0,425.0
2417,1685098375137,504.0,450.0
2418,1685098375137,410.0,445.0
2419,1685098375137,527.0,427.0
2420,1685098375167,432.0,454.0
2421,1685098375167,522.0,436.0
2422,1685098375167,448.0,441.0
2423,1685098375167,448.0,433.0
2424,1685098375204,435.0,436.0
2425,1685098375204,482.0,449.0
2426,1685098375204,372.0,395.0
2427,1685098375237,403.0,440.0
2428,1685098375237,510.0,458.0
2429,1685098375237,326.0,405.0
2430,1685098375237,421.0,416.0
2431,1685098375272,435.0,450.0
2432,1685098375272,453.0,418.0
2433,1685098375272,351.0,426.0
2434,1685098375303,521.0,444.0
2435,1685098375303,399.0,465.0
2436,1685098375303,514.0,424.0
2437,1685098375303,430.0,452.0
2438,1685098375338,523.0,428.0
2439,1685098375338,420.0,438.0
2440,1685098375338,389.0,432.0
2441,1685098375370,404.0,423.0
2442,1685098375370,460.0,456.0
2443,1685098375370,375.0,408.0
2444,1685098375370,386.0,423.0
2445,1685098375397,583.0,468.0
2446,1685098375397,359.0,429.0
2447,1685098375397,448.0,409.0
2448,1685098375429,390.0,443.0
2449,1685098375429,487.0,432.0
2450,1685098375429,374.0,425.0
2451,1685098375429,522.0,446.0
2452,1685098375460,430.0,455.0
2453,1685098375460,474.0,429.0
2454,1685098375460,464.0,449.0
2455,1685098375460,483.0,433.0
2456,1685098375505,414.0,436.0
2457,1685098375505,389.0,433.0
2458,1685098375505,374.0,408.0
2459,1685098375536,479.0,460.0
2460,1685098375536,439.0,425.0
2461,1685098375536,323.0,404.0
2462,1685098375536,528.0,464.0
2463,1685098375572,395.0,439.0
2464,1685098375572,431.0,405.0
2465,1685098375572,398.0,437.0
2466,1685098375603,512.0,438.0
2467,1685098375603,395.0,445.0
2468,1685098375603,515.0,441.0
2469,1685098375603,426.0,457.0
2470,1685098375637,489.0,434.0
2471,1685098375637,463.0,450.0
2472,1685098375637,458.0,433.0
2473,1685098375666,417.0,429.0
2474,1685098375666,414.0,450.0
2475,1685098375666,341.0,392.0
2476,1685098375666,450.0,458.0
2477,1685098375697,484.0,459.0
2478,1685098375697,310.0,394.0
2479,1685098375697,453.0,432.0
2480,1685098375729,412.0,447.0
2481,1685098375729,421.0,405.0
2482,1685098375729,344.0,418.0
2483,1685098375729,489.0,446.0
2484,1685098375760,443.0,454.0
2485,1685098375760,527.0,435.0
2486,1685098375760,432.0,451.0
2487,1685098375760,511.0,442.0
2488,1685098375806,461.0,450.0
2489,1685098375806,472.0,426.0
2490,1685098375806,419.0,429.0
2491,1685098375838,478.0,450.0
2492,1685098375838,368.0,399.0
2493,1685098375838,408.0,438.0
2494,1685098375838,516.0,463.0
2495,1685098375872,355.0,409.0
2496,1685098375872,421.0,409.0
2497,1685098375872,417.0,456.0
2498,1685098375905,456.0,414.0
2499,1685098375905,341.0,419.0
2500,1685098375905,520.0,443.0
2501,1685098375905,400.0,461.0
2502,1685098375938,489.0,431.0
2503,1685098375938,440.0,450.0
2504,1685098375938,486.0,440.0
2505,1685098375968,404.0,445.0
2506,1685098375968,440.0,422.0
2507,1685098375968,381.0,418.0
2508,1685098375968,511.0,461.0
2509,1685098375999,391.0,406.0
2510,1685098375999,374.0,429.0
2511,1685098375999,547.0,474.0
2512,1685098376038,345.0,412.0
2513,1685098376038,407.0,399.0
2514,1685098376038,403.0,445.0
2515,1685098376038,487.0,435.0
2516,1685098376072,376.0,431.0
2517,1685098376072,589.0,438.0
2518,1685098376072,417.0,461.0
2519,1685098376072,486.0,425.0
2520,1685098376107,417.0,443.0
2521,1685098376107,488.0,439.0
2522,1685098376107,435.0,442.0
2523,1685098376138,442.0,433.0
2524,1685098376138,372.0,409.0
2525,1685098376138,482.0,462.0
2526,1685098376138,415.0,422.0
2527,1685098376173,332.0,410.0
2528,1685098376173,520.0,456.0
2529,1685098376173,383.0,430.0
2530,1685098376204,419.0,399.0
2531,1685098376204,394.0,436.0
2532,1685098376204,510.0,442.0
2533,1685098376204,386.0,439.0
2534,1685098376235,501.0,439.0
2535,1685098376235,427.0,450.0
2536,1685098376235,493.0,433.0
2537,1685098376273,421.0,442.0
2538,1685098376273,518.0,433.0
2539,1685098376273,415.0,433.0
2540,1685098376273,446.0,439.0
2541,1685098376305,376.0,403.0
2542,1685098376305,464.0,458.0
2543,1685098376305,473.0,438.0
2544,1685098376330,314.0,394.0
2545,1685098376330,499.0,429.0
2546,1685098376330,401.0,448.0
2547,1685098376330,430.0,407.0
2548,1685098376362,359.0,429.0
2549,1685098376362,493.0,434.0
2550,1685098376362,360.0,458.0
2551,1685098376362,509.0,432.0
2552,1685098376407,436.0,456.0
2553,1685098376407,506.0,432.0
2554,1685098376407,442.0,456.0
2555,1685098376438,441.0,427.0
2556,1685098376438,400.0,425.0
2557,1685098376438,469.0,456.0
2558,1685098376438,374.0,399.0
2559,1685098376474,409.0,437.0
2560,1685098376474,507.0,466.0
2561,1685098376474,353.0,410.0
2562,1685098376505,460.0,402.0
2563,1685098376505,374.0,452.0
2564,1685098376505,444.0,419.0
2565,1685098376505,351.0,422.0
2566,1685098376536,509.0,445.0
2567,1685098376536,431.0,452.0
2568,1685098376536,510.0,435.0
2569,1685098376568,419.0,445.0
2570,1685098376568,501.0,432.0
2571,1685098376568,459.0,445.0
2572,1685098376568,437.0,438.0
2573,1685098376599,398.0,425.0
2574,1685098376599,469.0,457.0
2575,1685098376599,386.0,405.0
2576,1685098376631,363.0,422.0
2577,1685098376631,531.0,471.0
2578,1685098376631,376.0,429.0
2579,1685098376631,390.0,398.0
2580,1685098376673,389.0,439.0
2581,1685098376673,499.0,446.0
2582,1685098376673,392.0,430.0
2583,1685098376673,574.0,432.0
2584,1685098376708,426.0,465.0
2585,1685098376708,504.0,432.0
2586,1685098376708,421.0,443.0
2587,1685098376740,482.0,432.0
2588,1685098376740,444.0,439.0
2589,1685098376740,470.0,429.0
2590,1685098376740,372.0,406.0
2591,1685098376774,483.0,465.0
2592,1685098376774,426.0,420.0
2593,1685098376774,417.0,405.0
2594,1685098376806,517.0,465.0
2595,1685098376806,398.0,433.0
2596,1685098376806,414.0,403.0
2597,1685098376806,373.0,430.0
2598,1685098376840,514.0,442.0
2599,1685098376840,358.0,431.0
2600,1685098376840,515.0,448.0
2601,1685098376868,422.0,461.0
2602,1685098376868,500.0,432.0
2603,1685098376868,404.0,448.0
2604,1685098376868,439.0,430.0
2605,1685098376907,480.0,440.0
2606,1685098376907,453.0,433.0
2607,1685098376907,382.0,401.0
2608,1685098376940,485.0,458.0
2609,1685098376940,470.0,444.0
2610,1685098376940,290.0,394.0
2611,1685098376940,511.0,448.0
2612,1685098376969,414.0,443.0
2613,1685098376969,413.0,398.0
2614,1685098376969,323.0,427.0
2615,1685098376969,519.0,443.0
2616,1685098377008,396.0,442.0
2617,1685098377008,485.0,439.0
2618,1685098377008,435.0,451.0
2619,1685098377041,502.0,432.0
2620,1685098377041,419.0,441.0
2621,1685098377041,468.0,434.0
2622,1685098377041,439.0,434.0
2623,1685098377074,455.0,451.0
2624,1685098377074,373.0,393.0
2625,1685098377074,368.0,446.0
2626,1685098377107,494.0,459.0
2627,1685098377107,286.0,404.0
2628,1685098377107,429.0,416.0
2629,1685098377107,404.0,442.0
2630,1685098377140,462.0,422.0
2631,1685098377140,360.0,434.0
2632,1685098377140,513.0,433.0
2633,1685098377169,392.0,454.0
2634,1685098377169,473.0,436.0
2635,1685098377169,416.0,454.0
2636,1685098377169,449.0,422.0
2637,1685098377200,431.0,448.0
2638,1685098377200,460.0,438.0
2639,1685098377200,411.0,413.0
2640,1685098377231,460.0,461.0
2641,1685098377231,370.0,403.0
2642,1685098377231,340.0,423.0
2643,1685098377231,524.0,466.0
2644,1685098377264,347.0,428.0
2645,1685098377264,440.0,401.0
2646,1685098377264,412.0,450.0
2647,1685098377264,505.0,434.0
2648,1685098377309,384.0,434.0
2649,1685098377309,509.0,436.0
2650,1685098377309,424.0,462.0
2651,1685098377340,495.0,425.0
2652,1685098377340,424.0,447.0
2653,1685098377340,472.0,427.0
2654,1685098377340,469.0,448.0
2655,1685098377375,428.0,432.0
2656,1685098377375,348.0,400.0
2657,1685098377375,481.0,467.0
2658,1685098377406,432.0,426.0
2659,1685098377406,327.0,410.0
2660,1685098377406,522.0,458.0
2661,1685098377406,400.0,446.0
2662,1685098377438,419.0,397.0
2663,1685098377438,370.0,433.0
2664,1685098377438,449.0,440.0
2665,1685098377469,382.0,441.0
2666,1685098377469,479.0,437.0
2667,1685098377469,455.0,457.0
2668,1685098377469,495.0,433.0
2669,1685098377500,422.0,450.0
2670,1685098377500,464.0,426.0
2671,1685098377500,443.0,440.0
2672,1685098377531,461.0,445.0
2673,1685098377531,368.0,400.0
2674,1685098377531,456.0,458.0
2675,1685098377531,481.0,439.0
2676,1685098377576,290.0,391.0
2677,1685098377576,493.0,434.0
2678,1685098377576,396.0,437.0
2679,1685098377576,411.0,409.0
2680,1685098377609,353.0,427.0
2681,1685098377609,515.0,443.0
2682,1685098377609,413.0,446.0
2683,1685098377642,494.0,429.0
2684,1685098377642,447.0,459.0
2685,1685098377642,514.0,438.0
2686,1685098377642,473.0,451.0
2687,1685098377676,476.0,428.0
2688,1685098377676,438.0,433.0
2689,1685098377676,459.0,450.0
2690,1685098377709,331.0,400.0
2691,1685098377709,434.0,442.0
2692,1685098377709,506.0,458.0
2693,1685098377709,314.0,407.0
2694,1685098377740,434.0,420.0
2695,1685098377740,421.0,444.0
2696,1685098377740,434.0,415.0
2697,1685098377771,368.0,425.0
2698,1685098377771,533.0,443.0
2699,1685098377771,496.0,446.0
2700,1685098377771,474.0,437.0
2701,1685098377802,428.0,458.0
2702,1685098377802,485.0,433.0
2703,1685098377802,425.0,445.0
2704,1685098377833,452.0,431.0
2705,1685098377833,396.0,413.0
2706,1685098377833,465.0,458.0
2707,1685098377833,406.0,406.0
2708,1685098377865,370.0,423.0
2709,1685098377865,541.0,480.0
2710,1685098377865,339.0,416.0
2711,1685098377865,418.0,414.0
2712,1685098377910,389.0,436.0
2713,1685098377910,484.0,433.0
2714,1685098377910,388.0,436.0
2715,1685098377941,521.0,446.0
2716,1685098377941,448.0,453.0
2717,1685098377941,498.0,434.0
2718,1685098377941,422.0,443.0
2719,1685098377978,476.0,425.0
2720,1685098377978,455.0,441.0
2721,1685098377978,465.0,432.0
2722,1685098378009,392.0,404.0
2723,1685098378009,477.0,466.0
2724,1685098378009,404.0,424.0
2725,1685098378009,289.0,400.0
2726,1685098378041,502.0,463.0
2727,1685098378041,396.0,437.0
2728,1685098378041,409.0,398.0
2729,1685098378072,366.0,431.0
2730,1685098378072,477.0,437.0
2731,1685098378072,333.0,438.0
2732,1685098378072,486.0,446.0
2733,1685098378103,415.0,454.0
2734,1685098378103,504.0,435.0
2735,1685098378103,444.0,453.0
2736,1685098378142,445.0,434.0
2737,1685098378142,422.0,435.0
2738,1685098378142,468.0,442.0
2739,1685098378142,351.0,402.0
2740,1685098378168,457.0,459.0
2741,1685098378168,498.0,446.0
2742,1685098378168,305.0,387.0
2743,1685098378168,437.0,427.0
2744,1685098378211,425.0,440.0
2745,1685098378211,409.0,401.0
2746,1685098378211,384.0,426.0
2747,1685098378243,514.0,446.0
2748,1685098378243,414.0,450.0
2749,1685098378243,564.0,437.0
2750,1685098378243,434.0,452.0
2751,1685098378278,495.0,437.0
2752,1685098378278,431.0,455.0
2753,1685098378278,423.0,422.0
2754,1685098378309,436.0,437.0
2755,1685098378309,459.0,446.0
2756,1685098378309,346.0,400.0
2757,1685098378309,396.0,441.0
2758,1685098378340,498.0,459.0
2759,1685098378340,302.0,393.0
2760,1685098378340,406.0,417.0
2761,1685098378372,415.0,448.0
2762,1685098378372,455.0,417.0
2763,1685098378372,365.0,425.0
2764,1685098378372,522.0,453.0
2765,1685098378403,424.0,453.0
2766,1685098378403,495.0,432.0
2767,1685098378403,408.0,450.0
2768,1685098378434,511.0,432.0
2769,1685098378434,459.0,444.0
2770,1685098378434,450.0,424.0
2771,1685098378434,418.0,421.0
2772,1685098378466,527.0,464.0
2773,1685098378466,379.0,400.0
2774,1685098378466,388.0,426.0
2775,1685098378466,532.0,478.0
2776,1685098378511,317.0,426.0
2777,1685098378511,402.0,397.0
2778,1685098378511,398.0,446.0
2779,1685098378543,487.0,438.0
2780,1685098378543,356.0,432.0
2781,1685098378543,524.0,446.0
2782,1685098378543,421.0,447.0
2783,1685098378578,516.0,427.0
2784,1685098378578,415.0,450.0
2785,1685098378578,480.0,432.0
2786,1685098378609,433.0,435.0
2787,1685098378609,493.0,443.0
2788,1685098378609,401.0,409.0
2789,1685098378609,471.0,463.0
2790,1685098378644,404.0,424.0
2791,1685098378644,301.0,404.0
2792,1685098378644,491.0,452.0
2793,1685098378673,363.0,432.0
2794,1685098378673,422.0,399.0
2795,1685098378673,373.0,436.0
2796,1685098378673,496.0,432.0
2797,1685098378705,383.0,437.0
2798,1685098378705,551.0,444.0
2799,1685098378705,438.0,457.0
2800,1685098378736,457.0,426.0
2801,1685098378736,417.0,460.0
2802,1685098378736,491.0,427.0
2803,1685098378736,434.0,440.0
2804,1685098378777,432.0,440.0
2805,1685098378777,315.0,402.0
2806,1685098378777,440.0,450.0
2807,1685098378777,447.0,440.0
2808,1685098378811,310.0,395.0
2809,1685098378811,397.0,435.0
2810,1685098378811,405.0,445.0
2811,1685098378843,423.0,411.0
2812,1685098378843,359.0,419.0
2813,1685098378843,477.0,437.0
2814,1685098378843,411.0,452.0
2815,1685098378879,519.0,438.0
2816,1685098378879,436.0,452.0
2817,1685098378879,502.0,440.0
2818,1685098378910,409.0,452.0
2819,1685098378910,408.0,431.0
2820,1685098378910,365.0,432.0
2821,1685098378910,452.0,446.0
2822,1685098378942,377.0,397.0
2823,1685098378942,425.0,444.0
2824,1685098378942,495.0,461.0
2825,1685098378973,320.0,407.0
2826,1685098378973,434.0,407.0
2827,1685098378973,408.0,445.0
2828,1685098378973,479.0,416.0
2829,1685098379012,387.0,425.0
2830,1685098379012,507.0,450.0
2831,1685098379012,433.0,453.0
2832,1685098379040,515.0,433.0
2833,1685098379040,410.0,451.0
2834,1685098379040,488.0,432.0
2835,1685098379040,451.0,446.0
2836,1685098379067,483.0,420.0
2837,1685098379067,446.0,423.0
2838,1685098379067,429.0,458.0
2839,1685098379067,377.0,412.0
2840,1685098379112,380.0,428.0
2841,1685098379112,542.0,477.0
2842,1685098379112,367.0,415.0
2843,1685098379145,411.0,401.0
2844,1685098379145,405.0,448.0
2845,1685098379145,460.0,433.0
2846,1685098379145,380.0,420.0
2847,1685098379179,585.0,448.0
2848,1685098379179,430.0,461.0
2849,1685098379179,481.0,431.0
2850,1685098379211,430.0,446.0
2851,1685098379211,487.0,435.0
2852,1685098379211,450.0,443.0
2853,1685098379211,450.0,433.0
2854,1685098379242,329.0,409.0
2855,1685098379242,447.0,465.0
2856,1685098379242,411.0,425.0
2857,1685098379274,326.0,406.0
2858,1685098379274,470.0,465.0
2859,1685098379274,366.0,433.0
2860,1685098379274,393.0,399.0
2861,1685098379306,381.0,431.0
2862,1685098379306,493.0,439.0
2863,1685098379306,359.0,433.0
2864,1685098379336,491.0,452.0
2865,1685098379336,437.0,459.0
2866,1685098379336,481.0,432.0
2867,1685098379336,431.0,450.0
2868,1685098379379,479.0,439.0
2869,1685098379379,446.0,436.0
2870,1685098379379,451.0,434.0
2871,1685098379379,330.0,399.0
2872,1685098379413,471.0,456.0
2873,1685098379413,445.0,434.0
2874,1685098379413,298.0,385.0
2875,1685098379445,459.0,432.0
2876,1685098379445,345.0,446.0
2877,1685098379445,413.0,405.0
2878,1685098379445,378.0,431.0
2879,1685098379480,520.0,439.0
2880,1685098379480,400.0,446.0
2881,1685098379480,533.0,442.0
2882,1685098379511,441.0,456.0
2883,1685098379511,496.0,436.0
2884,1685098379511,464.0,447.0
2885,1685098379511,515.0,434.0
2886,1685098379543,426.0,431.0
2887,1685098379543,444.0,447.0
2888,1685098379543,364.0,400.0
2889,1685098379574,417.0,443.0
2890,1685098379574,519.0,458.0
2891,1685098379574,319.0,399.0
2892,1685098379574,450.0,404.0
2893,1685098379605,407.0,454.0
2894,1685098379605,432.0,427.0
2895,1685098379605,299.0,438.0
2896,1685098379636,466.0,446.0
2897,1685098379636,378.0,449.0
2898,1685098379636,493.0,429.0
2899,1685098379636,436.0,450.0
2900,1685098379668,485.0,425.0
2901,1685098379668,430.0,452.0
2902,1685098379668,464.0,432.0
2903,1685098379668,407.0,418.0
2904,1685098379713,489.0,468.0
2905,1685098379713,382.0,406.0
2906,1685098379713,405.0,432.0
2907,1685098379745,493.0,472.0
2908,1685098379745,348.0,417.0
2909,1685098379745,439.0,403.0
2910,1685098379745,402.0,446.0
2911,1685098379781,475.0,425.0
2912,1685098379781,363.0,436.0
2913,1685098379781,504.0,432.0
2914,1685098379812,417.0,458.0
2915,1685098379812,503.0,433.0
2916,1685098379812,436.0,443.0
2917,1685098379812,497.0,433.0
2918,1685098379846,467.0,447.0
2919,1685098379846,455.0,424.0
2920,1685098379846,383.0,423.0
2921,1685098379876,478.0,457.0
2922,1685098379876,401.0,426.0
2923,1685098379876,328.0,402.0
2924,1685098379876,509.0,471.0
2925,1685098379907,375.0,440.0
2926,1685098379907,377.0,396.0
2927,1685098379907,343.0,435.0
2928,1685098379939,505.0,443.0
2929,1685098379939,401.0,428.0
2930,1685098379939,537.0,450.0
2931,1685098379939,457.0,467.0
2932,1685098379979,502.0,433.0
2933,1685098379979,435.0,454.0
2934,1685098379979,475.0,430.0
2935,1685098379979,432.0,439.0
2936,1685098380014,397.0,432.0
2937,1685098380014,376.0,393.0
2938,1685098380014,467.0,458.0
2939,1685098380045,482.0,430.0
2940,1685098380045,281.0,399.0
2941,1685098380045,463.0,439.0
2942,1685098380045,384.0,446.0
2943,1685098380082,450.0,400.0
2944,1685098380082,365.0,427.0
2945,1685098380082,539.0,445.0
2946,1685098380114,448.0,449.0
2947,1685098380114,515.0,436.0
2948,1685098380114,444.0,458.0
2949,1685098380114,500.0,431.0
2950,1685098380148,428.0,445.0
2951,1685098380148,495.0,432.0
2952,1685098380148,435.0,441.0
2953,1685098380178,460.0,435.0
2954,1685098380178,351.0,396.0
2955,1685098380178,462.0,447.0
2956,1685098380178,496.0,461.0
2957,1685098380214,298.0,402.0
2958,1685098380214,449.0,421.0
2959,1685098380214,395.0,452.0
2960,1685098380247,456.0,414.0
2961,1685098380247,338.0,425.0
2962,1685098380247,515.0,440.0
2963,1685098380247,411.0,454.0
2964,1685098380280,526.0,438.0
2965,1685098380280,452.0,455.0
2966,1685098380280,490.0,427.0
2967,1685098380280,435.0,454.0
2968,1685098380315,458.0,429.0
2969,1685098380315,413.0,421.0
2970,1685098380315,504.0,462.0
2971,1685098380347,382.0,405.0
2972,1685098380347,396.0,431.0
2973,1685098380347,533.0,470.0
2974,1685098380347,352.0,427.0
2975,1685098380382,407.0,395.0
2976,1685098380382,384.0,444.0
2977,1685098380382,441.0,426.0
2978,1685098380413,391.0,430.0
2979,1685098380413,525.0,446.0
2980,1685098380413,415.0,454.0
2981,1685098380413,505.0,444.0
2982,1685098380444,429.0,447.0
2983,1685098380444,472.0,430.0
2984,1685098380444,454.0,453.0
2985,1685098380475,480.0,433.0
2986,1685098380475,381.0,411.0
2987,1685098380475,459.0,458.0
2988,1685098380475,399.0,418.0
2989,1685098380514,338.0,404.0
2990,1685098380514,525.0,466.0
2991,1685098380515,421.0,439.0
2992,1685098380548,391.0,398.0
2993,1685098380548,376.0,433.0
2994,1685098380548,500.0,444.0
2995,1685098380548,432.0,436.0
2996,1685098380582,516.0,444.0
2997,1685098380582,434.0,458.0
2998,1685098380582,517.0,441.0
2999,1685098380582,431.0,451.0
3000,1685098380615,480.0,429.0
3001,1685098380615,437.0,437.0
3002,1685098380615,460.0,446.0
3003,1685098380647,360.0,395.0
3004,1685098380647,480.0,464.0
3005,1685098380647,518.0,440.0
3006,1685098380647,296.0,392.0
3007,1685098380682,480.0,440.0
3008,1685098380682,393.0,449.0
3009,1685098380682,429.0,398.0
3010,1685098380714,358.0,429.0
3011,1685098380714,522.0,453.0
3012,1685098380714,414.0,456.0
3013,1685098380714,498.0,433.0
3014,1685098380745,425.0,460.0
3015,1685098380745,513.0,433.0
3016,1685098380745,425.0,450.0
3017,1685098380782,522.0,435.0
3018,1685098380782,422.0,433.0
3019,1685098380782,468.0,444.0
3020,1685098380782,359.0,400.0
3021,1685098380809,446.0,450.0
3022,1685098380809,499.0,458.0
3023,1685098380809,295.0,392.0
3024,1685098380848,502.0,425.0
3025,1685098380848,448.0,450.0
3026,1685098380848,436.0,424.0
3027,1685098380848,399.0,428.0
3028,1685098380874,520.0,442.0
3029,1685098380874,412.0,452.0
3030,1685098380874,488.0,428.0
3031,1685098380874,433.0,460.0
3032,1685098380916,496.0,436.0
3033,1685098380916,436.0,447.0
3034,1685098380916,517.0,429.0
3035,1685098380948,430.0,419.0
3036,1685098380948,489.0,460.0
3037,1685098380948,376.0,399.0
3038,1685098380948,416.0,432.0
3039,1685098380983,564.0,474.0
3040,1685098380983,343.0,418.0
3041,1685098380983,430.0,407.0
3042,1685098381015,402.0,453.0
3043,1685098381015,465.0,424.0
3044,1685098381015,372.0,437.0
3045,1685098381015,464.0,439.0
3046,1685098381048,416.0,455.0
3047,1685098381048,507.0,438.0
3048,1685098381048,444.0,458.0
3049,1685098381078,503.0,432.0
3050,1685098381078,438.0,442.0
3051,1685098381078,480.0,433.0
3052,1685098381078,399.0,420.0
3053,1685098381116,483.0,455.0
3054,1685098381116,382.0,416.0
3055,1685098381116,367.0,410.0
3056,1685098381141,523.0,471.0
3057,1685098381141,368.0,437.0
3058,1685098381141,398.0,403.0
3059,1685098381141,388.0,433.0
3060,1685098381173,489.0,435.0
3061,1685098381173,379.0,442.0
3062,1685098381173,531.0,449.0
3063,1685098381173,440.0,466.0
3064,1685098381217,451.0,433.0
3065,1685098381217,368.0,461.0
3066,1685098381217,463.0,426.0
3067,1685098381248,435.0,439.0
3068,1685098381248,449.0,450.0
3069,1685098381248,368.0,402.0
3070,1685098381248,467.0,453.0
3071,1685098381284,438.0,436.0
3072,1685098381284,309.0,396.0
3073,1685098381284,466.0,439.0
3074,1685098381316,406.0,454.0
3075,1685098381316,435.0,398.0
3076,1685098381316,304.0,426.0
3077,1685098381316,502.0,447.0
3078,1685098381350,402.0,453.0
3079,1685098381350,518.0,446.0
3080,1685098381350,427.0,448.0
3081,1685098381383,505.0,441.0
3082,1685098381383,441.0,448.0
3083,1685098381383,456.0,429.0
3084,1685098381383,396.0,423.0
3085,1685098381412,488.0,452.0
3086,1685098381412,361.0,395.0
3087,1685098381412,415.0,441.0
3088,1685098381443,506.0,470.0
3089,1685098381443,316.0,392.0
3090,1685098381443,453.0,419.0
3091,1685098381443,418.0,456.0
3092,1685098381475,453.0,427.0
3093,1685098381475,336.0,423.0
3094,1685098381475,448.0,456.0
3095,1685098381475,422.0,453.0
3096,1685098381518,493.0,433.0
3097,1685098381518,411.0,451.0
3098,1685098381518,490.0,429.0
3099,1685098381549,473.0,441.0
3100,1685098381549,443.0,425.0
3101,1685098381549,421.0,425.0
3102,1685098381549,493.0,464.0
3103,1685098381584,359.0,402.0
3104,1685098381584,402.0,426.0
3105,1685098381584,531.0,476.0
3106,1685098381616,363.0,417.0
3107,1685098381616,410.0,403.0
3108,1685098381616,399.0,446.0
3109,1685098381616,480.0,434.0
3110,1685098381647,341.0,421.0
3111,1685098381647,506.0,454.0
3112,1685098381647,448.0,454.0
3113,1685098381678,497.0,436.0
3114,1685098381678,505.0,451.0
3115,1685098381678,512.0,433.0
3116,1685098381678,463.0,450.0
3117,1685098381710,462.0,433.0
3118,1685098381710,402.0,412.0
3119,1685098381710,499.0,460.0
3120,1685098381741,394.0,419.0
3121,1685098381741,347.0,409.0
3122,1685098381741,511.0,465.0
3123,1685098381741,331.0,445.0
3124,1685098381772,349.0,394.0
3125,1685098381772,391.0,435.0
3126,1685098381772,503.0,441.0
3127,1685098381772,366.0,437.0
3128,1685098381818,519.0,441.0
3129,1685098381818,430.0,466.0
3130,1685098381818,502.0,437.0
3131,1685098381850,428.0,452.0
3132,1685098381850,552.0,429.0
3133,1685098381850,448.0,431.0
3134,1685098381850,444.0,437.0
3135,1685098381886,368.0,400.0
3136,1685098381886,479.0,457.0
3137,1685098381886,421.0,435.0
3138,1685098381917,318.0,397.0
3139,1685098381917,490.0,436.0
3140,1685098381917,409.0,450.0
3141,1685098381917,410.0,401.0
3142,1685098381948,381.0,437.0
3143,1685098381948,488.0,446.0
3144,1685098381948,399.0,454.0
3145,1685098381980,492.0,440.0
3146,1685098381980,420.0,455.0
3147,1685098381980,494.0,434.0
3148,1685098381980,431.0,446.0
3149,1685098382011,483.0,429.0
3150,1685098382011,424.0,430.0
3151,1685098382011,463.0,447.0
3152,1685098382050,381.0,399.0
3153,1685098382050,400.0,438.0
3154,1685098382050,485.0,463.0
3155,1685098382050,331.0,397.0
3156,1685098382074,442.0,424.0
3157,1685098382074,425.0,454.0
3158,1685098382074,485.0,437.0
3159,1685098382074,358.0,424.0
3160,1685098382119,495.0,437.0
3161,1685098382119,406.0,465.0
3162,1685098382119,485.0,433.0
3163,1685098382150,406.0,451.0
3164,1685098382150,494.0,435.0
3165,1685098382150,452.0,450.0
3166,1685098382150,467.0,431.0
3167,1685098382185,421.0,419.0
3168,1685098382185,489.0,461.0
3169,1685098382185,379.0,400.0
3170,1685098382217,396.0,426.0
3171,1685098382217,570.0,471.0
3172,1685098382217,351.0,422.0
3173,1685098382217,407.0,399.0
3174,1685098382251,388.0,450.0
3175,1685098382251,472.0,434.0
3176,1685098382251,349.0,427.0
3177,1685098382285,482.0,435.0
3178,1685098382285,429.0,461.0
3179,1685098382285,504.0,437.0
3180,1685098382285,426.0,449.0
3181,1685098382319,531.0,436.0
3182,1685098382319,494.0,453.0
3183,1685098382319,452.0,438.0
3184,1685098382351,404.0,408.0
3185,1685098382351,484.0,462.0
3186,1685098382351,396.0,423.0
3187,1685098382351,359.0,404.0
3188,1685098382377,531.0,476.0
3189,1685098382377,385.0,431.0
3190,1685098382377,401.0,398.0
3191,1685098382377,379.0,439.0
3192,1685098382419,520.0,440.0
3193,1685098382419,405.0,439.0
3194,1685098382419,523.0,441.0
3195,1685098382451,466.0,481.0
3196,1685098382451,578.0,442.0
3197,1685098382451,418.0,438.0
3198,1685098382451,478.0,441.0
3199,1685098382490,431.0,431.0
3200,1685098382490,473.0,444.0
3201,1685098382490,343.0,387.0
3202,1685098382506,468.0,462.0
3203,1685098382506,442.0,429.0
3204,1685098382506,295.0,387.0
3205,1685098382506,479.0,442.0
3206,1685098382552,399.0,441.0
3207,1685098382552,435.0,403.0
3208,1685098382552,372.0,437.0
3209,1685098382586,518.0,448.0
3210,1685098382586,417.0,457.0
3211,1685098382586,484.0,442.0
3212,1685098382586,428.0,460.0
3213,1685098382617,503.0,427.0
3214,1685098382617,431.0,448.0
3215,1685098382617,458.0,423.0
3216,1685098382649,444.0,445.0
3217,1685098382649,488.0,446.0
3218,1685098382649,377.0,401.0
3219,1685098382649,479.0,449.0
3220,1685098382680,492.0,461.0
3221,1685098382680,316.0,403.0
3222,1685098382680,430.0,415.0
3223,1685098382680,418.0,452.0
3224,1685098382723,450.0,413.0
3225,1685098382723,353.0,428.0
3226,1685098382723,511.0,445.0
3227,1685098382740,404.0,455.0
3228,1685098382740,501.0,429.0
3229,1685098382740,405.0,451.0
3230,1685098382740,495.0,434.0
3231,1685098382787,402.0,441.0
3232,1685098382787,441.0,438.0
3233,1685098382787,429.0,418.0
3234,1685098382819,489.0,468.0
3235,1685098382819,377.0,406.0
3236,1685098382819,401.0,431.0
3237,1685098382819,531.0,471.0
3238,1685098382853,354.0,419.0
3239,1685098382853,403.0,409.0
3240,1685098382853,390.0,443.0
3241,1685098382883,463.0,432.0
3242,1685098382883,334.0,430.0
3243,1685098382883,511.0,441.0
3244,1685098382883,424.0,462.0
3245,1685098382914,502.0,433.0
3246,1685098382914,429.0,445.0
3247,1685098382914,496.0,439.0
3248,1685098382945,404.0,439.0
3249,1685098382945,471.0,442.0
3250,1685098382945,413.0,410.0
3251,1685098382945,471.0,455.0
3252,1685098382976,388.0,415.0
3253,1685098382976,329.0,403.0
3254,1685098382976,523.0,464.0
3255,1685098382976,390.0,439.0
3256,1685098383020,396.0,397.0
3257,1685098383020,347.0,442.0
3258,1685098383020,478.0,436.0
3259,1685098383052,352.0,446.0
3260,1685098383052,518.0,445.0
3261,1685098383052,440.0,462.0
3262,1685098383052,507.0,440.0
3263,1685098383092,437.0,442.0
3264,1685098383092,460.0,439.0
3265,1685098383092,422.0,430.0
3266,1685098383120,451.0,445.0
3267,1685098383120,380.0,387.0
3268,1685098383120,465.0,462.0
3269,1685098383120,401.0,437.0
3270,1685098383154,331.0,395.0
3271,1685098383154,473.0,441.0
3272,1685098383154,405.0,442.0
3273,1685098383187,436.0,412.0
3274,1685098383187,383.0,433.0
3275,1685098383187,500.0,445.0
3276,1685098383187,403.0,460.0
3277,1685098383219,491.0,440.0
3278,1685098383219,362.0,454.0
3279,1685098383219,497.0,430.0
3280,1685098383251,440.0,458.0
3281,1685098383251,482.0,423.0
3282,1685098383251,430.0,434.0
3283,1685098383251,478.0,458.0
3284,1685098383282,378.0,401.0
3285,1685098383282,429.0,446.0
3286,1685098383282,503.0,464.0
3287,1685098383282,313.0,399.0
3288,1685098383321,391.0,413.0
3289,1685098383321,395.0,446.0
3290,1685098383321,404.0,416.0
3291,1685098383352,365.0,422.0
3292,1685098383352,509.0,438.0
3293,1685098383352,428.0,466.0
3294,1685098383352,502.0,432.0
3295,1685098383388,425.0,450.0
3296,1685098383388,507.0,443.0
3297,1685098383388,450.0,439.0
3298,1685098383421,497.0,434.0
3299,1685098383421,405.0,414.0
3300,1685098383421,448.0,470.0
3301,1685098383421,381.0,401.0
3302,1685098383451,386.0,425.0
3303,1685098383451,517.0,468.0
3304,1685098383451,354.0,422.0
3305,1685098383484,413.0,399.0
3306,1685098383484,396.0,438.0
3307,1685098383484,460.0,436.0
3308,1685098383484,356.0,430.0
3309,1685098383514,531.0,440.0
3310,1685098383514,463.0,469.0
3311,1685098383514,556.0,432.0
3312,1685098383547,424.0,446.0
3313,1685098383547,480.0,434.0
3314,1685098383547,439.0,444.0
3315,1685098383547,440.0,436.0
3316,1685098383577,370.0,406.0
3317,1685098383577,470.0,465.0
3318,1685098383577,422.0,412.0
3319,1685098383577,338.0,408.0
3320,1685098383622,556.0,468.0
3321,1685098383622,384.0,435.0
3322,1685098383622,393.0,397.0
3323,1685098383654,395.0,438.0
3324,1685098383654,509.0,444.0
3325,1685098383654,391.0,440.0
3326,1685098383654,493.0,443.0
3327,1685098383691,422.0,457.0
3328,1685098383691,477.0,430.0
3329,1685098383691,405.0,443.0
3330,1685098383722,472.0,435.0
3331,1685098383722,424.0,434.0
3332,1685098383722,437.0,442.0
3333,1685098383722,375.0,398.0
3334,1685098383755,477.0,461.0
3335,1685098383755,469.0,442.0
3336,1685098383755,305.0,398.0
3337,1685098383786,453.0,436.0
3338,1685098383786,444.0,442.0
3339,1685098383786,410.0,408.0
3340,1685098383786,361.0,429.0
3341,1685098383818,464.0,433.0
3342,1685098383818,425.0,445.0
3343,1685098383818,508.0,437.0
3344,1685098383856,429.0,447.0
3345,1685098383856,501.0,435.0
3346,1685098383856,448.0,451.0
3347,1685098383856,466.0,433.0
3348,1685098383887,462.0,436.0
3349,1685098383887,479.0,458.0
3350,1685098383887,377.0,402.0
3351,1685098383887,438.0,443.0
3352,1685098383923,553.0,468.0
3353,1685098383923,325.0,399.0
3354,1685098383923,435.0,412.0
3355,1685098383956,396.0,434.0
3356,1685098383956,433.0,415.0
3357,1685098383956,382.0,430.0
3358,1685098383956,522.0,441.0
3359,1685098383990,419.0,452.0
3360,1685098383990,525.0,441.0
3361,1685098383990,440.0,453.0
3362,1685098384023,520.0,434.0
3363,1685098384023,475.0,445.0
3364,1685098384023,479.0,433.0
3365,1685098384023,408.0,415.0
3366,1685098384055,464.0,458.0
3367,1685098384055,368.0,401.0
3368,1685098384055,399.0,425.0
3369,1685098384088,560.0,480.0
3370,1685098384088,351.0,414.0
3371,1685098384088,412.0,403.0
3372,1685098384088,398.0,443.0
3373,1685098384117,452.0,437.0
3374,1685098384117,389.0,438.0
3375,1685098384117,505.0,437.0
3376,1685098384156,417.0,454.0
3377,1685098384156,498.0,436.0
3378,1685098384156,415.0,448.0
3379,1685098384156,474.0,424.0
3380,1685098384189,422.0,442.0
3381,1685098384189,447.0,431.0
3382,1685098384189,396.0,405.0
3383,1685098384189,456.0,465.0
3384,1685098384224,394.0,429.0
3385,1685098384224,330.0,403.0
3386,1685098384224,521.0,471.0
3387,1685098384255,386.0,438.0
3388,1685098384255,414.0,398.0
3389,1685098384255,390.0,436.0
3390,1685098384255,518.0,438.0
3391,1685098384290,395.0,450.0
3392,1685098384290,508.0,430.0
3393,1685098384290,413.0,456.0
3394,1685098384321,478.0,430.0
3395,1685098384321,394.0,445.0
3396,1685098384321,473.0,439.0
3397,1685098384321,441.0,432.0
3398,1685098384352,478.0,448.0
3399,1685098384352,380.0,401.0
3400,1685098384352,473.0,454.0
3401,1685098384390,487.0,445.0
3402,1685098384390,284.0,392.0
3403,1685098384390,462.0,428.0
3404,1685098384390,422.0,446.0
3405,1685098384422,443.0,402.0
3406,1685098384422,361.0,427.0
3407,1685098384422,517.0,440.0
3408,1685098384446,418.0,452.0
3409,1685098384446,512.0,426.0
3410,1685098384446,433.0,456.0
3411,1685098384446,529.0,448.0
3412,1685098384490,438.0,440.0
3413,1685098384490,461.0,430.0
3414,1685098384490,427.0,429.0
3415,1685098384490,473.0,452.0
3416,1685098384524,355.0,400.0
3417,1685098384524,394.0,437.0
3418,1685098384524,489.0,470.0
3419,1685098384555,283.0,396.0
3420,1685098384555,419.0,407.0
3421,1685098384555,415.0,453.0
3422,1685098384555,455.0,413.0
3423,1685098384590,363.0,424.0
3424,1685098384590,525.0,453.0
3425,1685098384590,431.0,454.0
3426,1685098384624,492.0,433.0
3427,1685098384624,393.0,450.0
3428,1685098384624,465.0,429.0
3429,1685098384624,467.0,453.0
3430,1685098384654,454.0,435.0
3431,1685098384654,432.0,426.0
3432,1685098384654,482.0,463.0
3433,1685098384685,380.0,402.0
3434,1685098384685,361.0,423.0
3435,1685098384685,535.0,471.0
3436,1685098384685,344.0,411.0
3437,1685098384716,419.0,412.0
3438,1685098384716,428.0,440.0
3439,1685098384716,490.0,437.0
3440,1685098384748,430.0,427.0
3441,1685098384748,502.0,441.0
3442,1685098384748,430.0,463.0
3443,1685098384748,497.0,430.0
3444,1685098384790,421.0,448.0
3445,1685098384790,494.0,437.0
3446,1685098384790,434.0,445.0
3447,1685098384790,447.0,432.0
3448,1685098384825,413.0,416.0
3449,1685098384825,484.0,456.0
3450,1685098384825,439.0,423.0
3451,1685098384856,287.0,402.0
3452,1685098384856,515.0,460.0
3453,1685098384856,399.0,440.0
3454,1685098384856,414.0,402.0
3455,1685098384892,396.0,437.0
3456,1685098384892,505.0,439.0
3457,1685098384892,436.0,444.0
3458,1685098384923,507.0,439.0
3459,1685098384923,414.0,457.0
3460,1685098384923,521.0,434.0
3461,1685098384923,432.0,446.0
3462,1685098384956,469.0,429.0
3463,1685098384956,429.0,438.0
3464,1685098384956,461.0,445.0
3465,1685098384991,382.0,398.0
3466,1685098384991,453.0,454.0
3467,1685098384991,454.0,446.0
3468,1685098384991,266.0,389.0
3469,1685098385023,466.0,428.0
3470,1685098385023,418.0,443.0
3471,1685098385023,435.0,408.0
3472,1685098385057,363.0,422.0
3473,1685098385057,502.0,438.0
3474,1685098385057,404.0,451.0
3475,1685098385057,518.0,437.0
3476,1685098385088,437.0,454.0
3477,1685098385088,561.0,434.0
3478,1685098385088,445.0,448.0
3479,1685098385088,499.0,431.0
3480,1685098385125,421.0,426.0
3481,1685098385125,476.0,454.0
3482,1685098385125,372.0,398.0
3483,1685098385157,411.0,441.0
3484,1685098385157,509.0,464.0
3485,1685098385157,319.0,408.0
3486,1685098385157,434.0,408.0
3487,1685098385191,391.0,445.0
3488,1685098385191,458.0,421.0
3489,1685098385191,394.0,424.0
3490,1685098385223,493.0,441.0
3491,1685098385223,444.0,463.0
3492,1685098385223,524.0,434.0
3493,1685098385223,420.0,448.0
3494,1685098385256,493.0,443.0
3495,1685098385256,444.0,454.0
3496,1685098385256,439.0,427.0
3497,1685098385286,398.0,413.0
3498,1685098385286,479.0,466.0
3499,1685098385286,419.0,408.0
3500,1685098385286,354.0,423.0
3501,1685098385317,538.0,476.0
3502,1685098385317,350.0,422.0
3503,1685098385317,414.0,410.0
3504,1685098385359,394.0,440.0
3505,1685098385359,493.0,442.0
3506,1685098385359,373.0,431.0
3507,1685098385359,497.0,428.0
3508,1685098385392,396.0,460.0
3509,1685098385392,420.0,433.0
3510,1685098385392,411.0,441.0
3511,1685098385392,470.0,435.0
3512,1685098385426,436.0,444.0
3513,1685098385426,450.0,435.0
3514,1685098385426,378.0,400.0
3515,1685098385458,487.0,466.0
3516,1685098385458,438.0,426.0
3517,1685098385458,322.0,400.0
3518,1685098385458,506.0,462.0
3519,1685098385492,406.0,433.0
3520,1685098385492,398.0,393.0
3521,1685098385492,347.0,439.0
3522,1685098385524,504.0,440.0
3523,1685098385524,393.0,443.0
3524,1685098385524,504.0,433.0
3525,1685098385524,434.0,461.0
3526,1685098385555,503.0,430.0
3527,1685098385555,436.0,445.0
3528,1685098385555,472.0,431.0
3529,1685098385586,451.0,434.0
3530,1685098385586,422.0,441.0
3531,1685098385586,341.0,399.0
3532,1685098385586,436.0,459.0
3533,1685098385618,477.0,447.0
3534,1685098385618,256.0,386.0
3535,1685098385618,451.0,436.0
3536,1685098385659,418.0,442.0
3537,1685098385659,428.0,400.0
3538,1685098385659,357.0,426.0
3539,1685098385659,509.0,433.0
3540,1685098385692,413.0,453.0
3541,1685098385692,547.0,436.0
3542,1685098385692,428.0,459.0
3543,1685098385692,474.0,435.0
3544,1685098385727,429.0,451.0
3545,1685098385727,469.0,437.0
3546,1685098385727,416.0,418.0
3547,1685098385759,465.0,453.0
3548,1685098385759,355.0,399.0
3549,1685098385759,408.0,436.0
3550,1685098385759,496.0,463.0
3551,1685098385793,319.0,405.0
3552,1685098385793,433.0,415.0
3553,1685098385793,414.0,445.0
3554,1685098385824,522.0,423.0
3555,1685098385824,390.0,434.0
3556,1685098385824,512.0,442.0
3557,1685098385824,425.0,451.0
3558,1685098385856,500.0,431.0
3559,1685098385856,430.0,453.0
3560,1685098385856,492.0,433.0
3561,1685098385888,418.0,442.0
3562,1685098385888,495.0,437.0
3563,1685098385888,448.0,419.0
3564,1685098385888,469.0,457.0
3565,1685098385925,392.0,407.0
3566,1685098385925,373.0,427.0
3567,1685098385925,544.0,473.0
3568,1685098385950,364.0,430.0
3569,1685098385950,421.0,395.0
3570,1685098385950,383.0,437.0
3571,1685098385950,478.0,431.0
3572,1685098385982,444.0,447.0
3573,1685098385982,540.0,436.0
3574,1685098385982,424.0,452.0
3575,1685098385982,489.0,432.0
3576,1685098386027,430.0,446.0
3577,1685098386027,479.0,435.0
3578,1685098386027,434.0,436.0
3579,1685098386059,461.0,444.0
3580,1685098386059,377.0,402.0
3581,1685098386059,471.0,465.0
3582,1685098386059,378.0,423.0
3583,1685098386094,316.0,404.0
3584,1685098386094,502.0,444.0
3585,1685098386094,380.0,439.0
3586,1685098386127,416.0,401.0
3587,1685098386127,375.0,424.0
3588,1685098386127,510.0,440.0
3589,1685098386127,411.0,448.0
3590,1685098386159,521.0,435.0
3591,1685098386159,426.0,454.0
3592,1685098386159,531.0,438.0
3593,1685098386193,467.0,449.0
3594,1685098386193,469.0,430.0
3595,1685098386193,425.0,429.0
3596,1685098386193,468.0,448.0
3597,1685098386226,373.0,396.0
3598,1685098386226,431.0,445.0
3599,1685098386226,478.0,462.0
3600,1685098386252,293.0,389.0
3601,1685098386252,451.0,421.0
3602,1685098386252,411.0,451.0
3603,1685098386252,411.0,407.0
3604,1685098386282,303.0,423.0
3605,1685098386282,509.0,433.0
3606,1685098386282,418.0,461.0
3607,1685098386282,486.0,430.0
3608,1685098386328,447.0,458.0
3609,1685098386328,508.0,435.0
3610,1685098386328,447.0,451.0
3611,1685098386360,453.0,428.0
3612,1685098386360,402.0,427.0
3613,1685098386360,472.0,460.0
3614,1685098386360,370.0,400.0
3615,1685098386394,389.0,435.0
3616,1685098386394,527.0,474.0
3617,1685098386394,351.0,406.0
3618,1685098386425,413.0,403.0
3619,1685098386425,395.0,445.0
3620,1685098386425,476.0,426.0
3621,1685098386425,364.0,426.0
3622,1685098386457,523.0,444.0
3623,1685098386457,449.0,459.0
3624,1685098386457,513.0,437.0
3625,1685098386489,422.0,445.0
3626,1685098386489,494.0,438.0
3627,1685098386489,448.0,437.0
3628,1685098386489,445.0,431.0
3629,1685098386526,406.0,418.0
3630,1685098386526,469.0,457.0
3631,1685098386526,414.0,414.0
3632,1685098386552,399.0,408.0
3633,1685098386552,559.0,472.0
3634,1685098386552,352.0,424.0
3635,1685098386552,411.0,398.0
3636,1685098386591,402.0,439.0
3637,1685098386591,509.0,437.0
3638,1685098386591,370.0,439.0
3639,1685098386591,521.0,438.0
3640,1685098386628,442.0,464.0
3641,1685098386628,504.0,430.0
3642,1685098386628,401.0,447.0
3643,1685098386660,487.0,435.0
3644,1685098386660,451.0,438.0
3645,1685098386660,450.0,436.0
3646,1685098386660,375.0,403.0
3647,1685098386695,467.0,459.0
3648,1685098386695,448.0,435.0
3649,1685098386695,310.0,398.0
3650,1685098386727,502.0,448.0
3651,1685098386727,395.0,439.0
3652,1685098386727,413.0,405.0
3653,1685098386727,371.0,432.0
3654,1685098386761,537.0,438.0
3655,1685098386761,393.0,445.0
3656,1685098386761,516.0,445.0
3657,1685098386790,424.0,457.0
3658,1685098386790,494.0,432.0
3659,1685098386790,429.0,446.0
3660,1685098386790,465.0,430.0
3661,1685098386821,432.0,423.0
3662,1685098386821,461.0,443.0
3663,1685098386821,378.0,403.0
3664,1685098386853,444.0,441.0
3665,1685098386853,494.0,453.0
3666,1685098386853,282.0,399.0
3667,1685098386853,442.0,421.0
3668,1685098386884,414.0,449.0
3669,1685098386884,432.0,410.0
3670,1685098386884,353.0,421.0
3671,1685098386884,516.0,438.0
3672,1685098386928,419.0,458.0
3673,1685098386928,508.0,436.0
3674,1685098386928,436.0,452.0
3675,1685098386962,494.0,432.0
3676,1685098386962,426.0,448.0
3677,1685098386962,472.0,439.0
3678,1685098386962,403.0,423.0
3679,1685098386997,429.0,458.0
3680,1685098386997,375.0,401.0
3681,1685098386997,395.0,434.0
3682,1685098387028,521.0,469.0
3683,1685098387028,334.0,415.0
3684,1685098387028,410.0,399.0
3685,1685098387028,416.0,445.0
3686,1685098387060,438.0,417.0
3687,1685098387060,367.0,443.0
3688,1685098387060,509.0,432.0
3689,1685098387092,429.0,457.0
3690,1685098387092,509.0,438.0
3691,1685098387092,426.0,442.0
3692,1685098387092,482.0,431.0
3693,1685098387122,438.0,447.0
3694,1685098387122,460.0,435.0
3695,1685098387122,394.0,415.0
3696,1685098387154,461.0,457.0
3697,1685098387154,423.0,425.0
3698,1685098387154,322.0,404.0
3699,1685098387154,527.0,468.0
3700,1685098387184,382.0,432.0
3701,1685098387184,400.0,397.0
3702,1685098387184,344.0,438.0
3703,1685098387184,507.0,442.0
3704,1685098387229,396.0,437.0
3705,1685098387229,513.0,439.0
3706,1685098387229,418.0,464.0
3707,1685098387260,508.0,426.0
3708,1685098387260,405.0,445.0
3709,1685098387260,458.0,426.0
3710,1685098387260,433.0,438.0
3711,1685098387296,462.0,436.0
3712,1685098387296,370.0,401.0
3713,1685098387296,466.0,455.0
3714,1685098387328,462.0,446.0
3715,1685098387328,302.0,392.0
3716,1685098387328,482.0,438.0
3717,1685098387328,404.0,445.0
3718,1685098387360,416.0,399.0
3719,1685098387360,364.0,424.0
3720,1685098387360,514.0,438.0
3721,1685098387391,420.0,450.0
3722,1685098387391,489.0,429.0
3723,1685098387391,415.0,452.0
3724,1685098387391,514.0,440.0
3725,1685098387422,438.0,445.0
3726,1685098387422,460.0,429.0
3727,1685098387422,437.0,431.0
3728,1685098387453,482.0,443.0
3729,1685098387453,359.0,401.0
3730,1685098387453,461.0,449.0
3731,1685098387453,509.0,463.0
3732,1685098387496,305.0,379.0
3733,1685098387496,429.0,420.0
3734,1685098387496,395.0,445.0
3735,1685098387496,441.0,419.0
3736,1685098387530,355.0,429.0
3737,1685098387530,525.0,444.0
3738,1685098387530,417.0,456.0
3739,1685098387561,509.0,433.0
3740,1685098387561,428.0,458.0
3741,1685098387561,514.0,431.0
3742,1685098387561,426.0,445.0
3743,1685098387597,437.0,429.0
3744,1685098387597,381.0,425.0
3745,1685098387597,477.0,461.0
3746,1685098387628,377.0,407.0
3747,1685098387628,379.0,429.0
3748,1685098387628,563.0,485.0
3749,1685098387628,346.0,413.0
3750,1685098387660,405.0,402.0
3751,1685098387660,396.0,447.0
3752,1685098387660,491.0,429.0
3753,1685098387694,352.0,431.0
3754,1685098387694,518.0,437.0
3755,1685098387694,430.0,456.0
3756,1685098387694,467.0,435.0
3757,1685098387730,418.0,442.0
3758,1685098387730,492.0,435.0
3759,1685098387730,437.0,437.0
3760,1685098387763,437.0,434.0
3761,1685098387763,380.0,414.0
3762,1685098387763,449.0,468.0
3763,1685098387763,416.0,422.0
3764,1685098387797,328.0,404.0
3765,1685098387797,530.0,467.0
3766,1685098387797,408.0,436.0
3767,1685098387797,403.0,396.0
3768,1685098387831,364.0,436.0
3769,1685098387831,454.0,435.0
3770,1685098387831,320.0,433.0
3771,1685098387862,518.0,453.0
3772,1685098387862,428.0,457.0
3773,1685098387862,501.0,434.0
3774,1685098387862,426.0,448.0
3775,1685098387898,479.0,437.0
3776,1685098387898,433.0,433.0
3777,1685098387898,445.0,436.0
3778,1685098387930,360.0,403.0
3779,1685098387930,460.0,453.0
3780,1685098387930,467.0,436.0
