Sample Number (10000 samples per second),UNIX Timestamp (Milliseconds since 1970-01-01),C1 (),C2 ()
0,1685096469239,465.0,485.0
1,1685096469248,470.0,487.0
2,1685096469249,455.0,481.0
3,1685096469249,432.0,468.0
4,1685096469249,402.0,445.0
5,1685096469249,383.0,428.0
6,1685096469249,390.0,426.0
7,1685096469249,467.0,436.0
8,1685096469249,346.0,373.0
9,1685096469249,497.0,461.0
10,1685096469249,348.0,398.0
11,1685096469249,338.0,392.0
12,1685096469249,458.0,425.0
13,1685096469249,366.0,434.0
14,1685096469249,376.0,417.0
15,1685096469249,378.0,431.0
16,1685096469249,508.0,475.0
17,1685096469249,435.0,462.0
18,1685096469249,520.0,448.0
19,1685096469249,452.0,464.0
20,1685096469249,524.0,437.0
21,1685096469249,452.0,469.0
22,1685096469249,480.0,422.0
23,1685096469249,437.0,418.0
24,1685096469249,491.0,459.0
25,1685096469249,319.0,380.0
26,1685096469249,473.0,438.0
27,1685096469249,435.0,446.0
28,1685096469253,297.0,394.0
29,1685096469253,389.0,392.0
30,1685096469253,384.0,438.0
31,1685096469253,425.0,443.0
32,1685096469253,380.0,451.0
33,1685096469253,515.0,454.0
34,1685096469253,457.0,473.0
35,1685096469253,520.0,435.0
36,1685096469253,461.0,477.0
37,1685096469253,527.0,429.0
38,1685096469253,475.0,456.0
39,1685096469253,473.0,431.0
40,1685096469253,395.0,404.0
41,1685096469253,506.0,460.0
42,1685096469253,333.0,399.0
43,1685096469253,372.0,397.0
44,1685096469253,465.0,440.0
45,1685096469253,335.0,425.0
46,1685096469253,367.0,392.0
47,1685096469253,372.0,431.0
48,1685096469253,483.0,459.0
49,1685096469253,419.0,466.0
50,1685096469253,537.0,463.0
51,1685096469253,474.0,477.0
52,1685096469253,534.0,435.0
53,1685096469253,468.0,463.0
54,1685096469253,509.0,432.0
55,1685096469253,458.0,432.0
56,1685096469253,463.0,446.0
57,1685096469253,327.0,377.0
58,1685096469253,477.0,443.0
59,1685096469253,386.0,428.0
60,1685096469253,301.0,393.0
61,1685096469253,414.0,405.0
62,1685096469253,375.0,433.0
63,1685096469259,399.0,433.0
64,1685096469259,374.0,436.0
65,1685096469259,516.0,465.0
66,1685096469259,445.0,475.0
67,1685096469259,530.0,441.0
68,1685096469259,459.0,470.0
69,1685096469259,523.0,428.0
70,1685096469259,462.0,462.0
71,1685096469259,471.0,412.0
72,1685096469259,408.0,401.0
73,1685096469259,502.0,465.0
74,1685096469259,312.0,389.0
75,1685096469259,421.0,409.0
76,1685096469259,468.0,454.0
77,1685096469259,325.0,414.0
78,1685096469259,376.0,402.0
79,1685096469259,393.0,430.0
80,1685096469259,473.0,459.0
81,1685096469259,401.0,455.0
82,1685096469259,604.0,479.0
83,1685096469259,476.0,480.0
84,1685096469259,557.0,457.0
85,1685096469262,442.0,448.0
86,1685096469262,532.0,451.0
87,1685096469262,446.0,420.0
88,1685096469262,490.0,446.0
89,1685096469262,360.0,396.0
90,1685096469262,481.0,435.0
91,1685096469262,398.0,436.0
92,1685096469262,293.0,382.0
93,1685096469262,447.0,423.0
94,1685096469262,367.0,432.0
95,1685096469262,341.0,388.0
96,1685096469262,392.0,448.0
97,1685096469262,483.0,450.0
98,1685096469262,445.0,474.0
99,1685096469262,530.0,448.0
100,1685096469262,457.0,467.0
101,1685096469262,548.0,447.0
102,1685096469262,454.0,450.0
103,1685096469262,504.0,437.0
104,1685096469262,429.0,415.0
105,1685096469262,492.0,456.0
106,1685096469262,321.0,374.0
107,1685096469262,442.0,423.0
108,1685096469262,442.0,451.0
109,1685096469262,303.0,398.0
110,1685096469262,377.0,388.0
111,1685096469262,386.0,438.0
112,1685096469262,427.0,437.0
113,1685096469262,390.0,453.0
114,1685096469262,516.0,459.0
115,1685096469262,472.0,482.0
116,1685096469262,539.0,443.0
117,1685096469262,447.0,454.0
118,1685096469262,534.0,437.0
119,1685096469262,456.0,438.0
120,1685096469262,472.0,437.0
121,1685096469262,376.0,384.0
122,1685096469262,493.0,447.0
123,1685096469262,347.0,408.0
124,1685096469262,352.0,402.0
125,1685096469262,476.0,439.0
126,1685096469262,348.0,423.0
127,1685096469262,378.0,406.0
128,1685096469262,395.0,442.0
129,1685096469262,494.0,461.0
130,1685096469262,435.0,469.0
131,1685096469262,532.0,444.0
132,1685096469262,464.0,472.0
133,1685096469262,530.0,441.0
134,1685096469262,426.0,460.0
135,1685096469262,496.0,428.0
136,1685096469262,445.0,419.0
137,1685096469262,477.0,448.0
138,1685096469262,326.0,378.0
139,1685096469262,473.0,447.0
140,1685096469262,421.0,445.0
141,1685096469262,286.0,385.0
142,1685096469262,429.0,409.0
143,1685096469262,393.0,442.0
144,1685096469262,412.0,439.0
145,1685096469262,377.0,444.0
146,1685096469262,498.0,458.0
147,1685096469262,456.0,473.0
148,1685096469262,522.0,434.0
149,1685096469262,446.0,468.0
150,1685096469262,540.0,427.0
151,1685096469262,452.0,446.0
152,1685096469262,478.0,422.0
153,1685096469262,401.0,404.0
154,1685096469262,503.0,460.0
155,1685096469262,333.0,398.0
156,1685096469262,392.0,408.0
157,1685096469262,486.0,452.0
158,1685096469262,327.0,416.0
159,1685096469262,369.0,396.0
160,1685096469262,383.0,440.0
161,1685096469262,469.0,450.0
162,1685096469262,404.0,463.0
163,1685096469262,527.0,451.0
164,1685096469262,470.0,480.0
165,1685096469262,532.0,447.0
166,1685096469262,452.0,459.0
167,1685096469262,531.0,438.0
168,1685096469262,448.0,432.0
169,1685096469262,474.0,448.0
170,1685096469262,338.0,381.0
171,1685096469262,493.0,451.0
172,1685096469262,384.0,423.0
173,1685096469262,301.0,376.0
174,1685096469262,439.0,414.0
175,1685096469262,367.0,431.0
176,1685096469262,383.0,418.0
177,1685096469262,376.0,442.0
178,1685096469262,503.0,456.0
179,1685096469262,458.0,479.0
180,1685096469262,523.0,439.0
181,1685096469262,456.0,476.0
182,1685096469262,542.0,432.0
183,1685096469262,438.0,450.0
184,1685096469262,484.0,429.0
185,1685096469262,418.0,406.0
186,1685096469262,494.0,465.0
187,1685096469262,312.0,398.0
188,1685096469262,430.0,414.0
189,1685096469262,460.0,456.0
190,1685096469262,303.0,398.0
191,1685096469262,387.0,400.0
192,1685096469262,391.0,438.0
193,1685096469262,450.0,449.0
194,1685096469262,392.0,451.0
195,1685096469262,508.0,462.0
196,1685096469262,471.0,484.0
197,1685096469262,525.0,442.0
198,1685096469262,453.0,454.0
199,1685096469262,527.0,434.0
200,1685096469262,451.0,437.0
201,1685096469262,480.0,447.0
202,1685096469262,359.0,381.0
203,1685096469262,496.0,457.0
204,1685096469262,355.0,412.0
205,1685096469262,338.0,382.0
206,1685096469262,475.0,444.0
207,1685096469262,350.0,424.0
208,1685096469262,380.0,413.0
209,1685096469262,375.0,432.0
210,1685096469262,495.0,453.0
211,1685096469262,436.0,480.0
212,1685096469262,524.0,452.0
213,1685096469262,452.0,468.0
214,1685096469262,532.0,438.0
215,1685096469262,445.0,461.0
216,1685096469262,504.0,423.0
217,1685096469262,436.0,425.0
218,1685096469262,478.0,453.0
219,1685096469262,323.0,378.0
220,1685096469262,474.0,432.0
221,1685096469262,433.0,446.0
222,1685096469262,289.0,389.0
223,1685096469262,411.0,409.0
224,1685096469262,391.0,441.0
225,1685096469262,406.0,424.0
226,1685096469278,368.0,438.0
227,1685096469278,502.0,450.0
228,1685096469278,454.0,473.0
229,1685096469278,523.0,442.0
230,1685096469278,456.0,456.0
231,1685096469278,542.0,441.0
232,1685096469278,463.0,455.0
233,1685096469278,486.0,433.0
234,1685096469278,404.0,393.0
235,1685096469278,507.0,462.0
236,1685096469278,331.0,397.0
237,1685096469278,368.0,394.0
238,1685096469278,482.0,454.0
239,1685096469278,327.0,414.0
240,1685096469278,377.0,402.0
241,1685096469278,384.0,436.0
242,1685096469278,467.0,463.0
243,1685096469278,413.0,468.0
244,1685096469278,527.0,452.0
245,1685096469278,477.0,476.0
246,1685096469278,545.0,440.0
247,1685096469278,455.0,469.0
248,1685096469278,520.0,420.0
249,1685096469278,450.0,426.0
250,1685096469278,485.0,446.0
251,1685096469278,331.0,372.0
252,1685096469278,474.0,437.0
253,1685096469278,386.0,438.0
254,1685096469278,282.0,378.0
255,1685096469278,428.0,410.0
256,1685096469278,372.0,432.0
257,1685096469278,389.0,423.0
258,1685096469278,388.0,444.0
259,1685096469278,512.0,455.0
260,1685096469278,458.0,482.0
261,1685096469278,522.0,433.0
262,1685096469278,456.0,475.0
263,1685096469278,541.0,425.0
264,1685096469278,442.0,451.0
265,1685096469278,488.0,429.0
266,1685096469278,402.0,406.0
267,1685096469278,492.0,470.0
268,1685096469278,310.0,383.0
269,1685096469278,415.0,410.0
270,1685096469278,476.0,451.0
271,1685096469278,311.0,411.0
272,1685096469278,392.0,400.0
273,1685096469278,397.0,444.0
274,1685096469278,452.0,441.0
275,1685096469278,407.0,465.0
276,1685096469278,513.0,442.0
277,1685096469278,474.0,479.0
278,1685096469278,528.0,445.0
279,1685096469278,443.0,455.0
280,1685096469278,528.0,434.0
281,1685096469278,451.0,431.0
282,1685096469278,472.0,444.0
283,1685096469278,355.0,377.0
284,1685096469278,502.0,464.0
285,1685096469278,368.0,424.0
286,1685096469278,323.0,377.0
287,1685096469278,463.0,437.0
288,1685096469278,359.0,432.0
289,1685096469278,371.0,401.0
290,1685096469278,371.0,444.0
291,1685096469278,485.0,460.0
292,1685096469278,440.0,481.0
293,1685096469278,520.0,435.0
294,1685096469278,454.0,468.0
295,1685096469278,542.0,443.0
296,1685096469278,451.0,453.0
297,1685096469278,508.0,433.0
298,1685096469278,434.0,413.0
299,1685096469278,494.0,451.0
300,1685096469278,325.0,392.0
301,1685096469278,451.0,423.0
302,1685096469278,433.0,446.0
303,1685096469278,296.0,394.0
304,1685096469278,394.0,397.0
305,1685096469278,387.0,441.0
306,1685096469278,413.0,426.0
307,1685096469278,394.0,454.0
308,1685096469278,502.0,443.0
309,1685096469278,471.0,483.0
310,1685096469278,530.0,442.0
311,1685096469278,457.0,464.0
312,1685096469278,545.0,434.0
313,1685096469278,453.0,442.0
314,1685096469278,476.0,432.0
315,1685096469278,381.0,395.0
316,1685096469278,490.0,460.0
317,1685096469278,331.0,407.0
318,1685096469278,361.0,395.0
319,1685096469278,482.0,456.0
320,1685096469278,341.0,422.0
321,1685096469278,373.0,404.0
322,1685096469278,400.0,447.0
323,1685096469278,484.0,446.0
324,1685096469278,447.0,488.0
325,1685096469278,533.0,452.0
326,1685096469278,468.0,472.0
327,1685096469278,534.0,438.0
328,1685096469278,437.0,448.0
329,1685096469278,509.0,437.0
330,1685096469278,436.0,417.0
331,1685096469278,478.0,460.0
332,1685096469278,329.0,380.0
333,1685096469278,481.0,438.0
334,1685096469278,417.0,445.0
335,1685096469278,285.0,370.0
336,1685096469278,418.0,410.0
337,1685096469278,389.0,438.0
338,1685096469278,395.0,430.0
339,1685096469278,381.0,439.0
340,1685096469278,490.0,454.0
341,1685096469278,450.0,469.0
342,1685096469278,513.0,442.0
343,1685096469278,455.0,472.0
344,1685096469278,538.0,430.0
345,1685096469278,449.0,451.0
346,1685096469278,489.0,434.0
347,1685096469278,418.0,405.0
348,1685096469278,511.0,467.0
349,1685096469278,329.0,390.0
350,1685096469278,400.0,398.0
351,1685096469278,478.0,452.0
352,1685096469278,311.0,413.0
353,1685096469278,374.0,386.0
354,1685096469278,381.0,442.0
355,1685096469278,448.0,444.0
356,1685096469278,401.0,461.0
357,1685096469278,517.0,447.0
358,1685096469278,474.0,481.0
359,1685096469278,535.0,431.0
360,1685096469278,467.0,464.0
361,1685096469278,542.0,441.0
362,1685096469278,461.0,440.0
363,1685096469278,488.0,448.0
364,1685096469278,336.0,379.0
365,1685096469278,485.0,448.0
366,1685096469278,369.0,423.0
367,1685096469278,299.0,378.0
368,1685096469278,438.0,427.0
369,1685096469278,369.0,430.0
370,1685096469278,368.0,404.0
371,1685096469278,375.0,444.0
372,1685096469278,496.0,459.0
373,1685096469278,459.0,490.0
374,1685096469278,538.0,440.0
375,1685096469278,462.0,467.0
376,1685096469278,552.0,444.0
377,1685096469278,455.0,441.0
378,1685096469278,488.0,434.0
379,1685096469278,411.0,395.0
380,1685096469278,492.0,462.0
381,1685096469278,304.0,386.0
382,1685096469278,429.0,411.0
383,1685096469278,456.0,457.0
384,1685096469278,297.0,397.0
385,1685096469278,397.0,401.0
386,1685096469278,397.0,438.0
387,1685096469278,435.0,429.0
388,1685096469278,400.0,468.0
389,1685096469278,504.0,446.0
390,1685096469278,469.0,477.0
391,1685096469278,523.0,438.0
392,1685096469278,440.0,450.0
393,1685096469278,529.0,436.0
394,1685096469278,454.0,439.0
395,1685096469278,482.0,446.0
396,1685096469278,367.0,383.0
397,1685096469278,505.0,463.0
398,1685096469278,358.0,415.0
399,1685096469278,342.0,385.0
400,1685096469278,473.0,434.0
401,1685096469278,351.0,428.0
402,1685096469278,365.0,394.0
403,1685096469278,393.0,445.0
404,1685096469278,489.0,449.0
405,1685096469278,438.0,480.0
406,1685096469278,523.0,446.0
407,1685096469278,462.0,470.0
408,1685096469278,541.0,445.0
409,1685096469278,444.0,452.0
410,1685096469278,510.0,428.0
411,1685096469294,438.0,425.0
412,1685096469294,490.0,446.0
413,1685096469294,326.0,387.0
414,1685096469294,462.0,432.0
415,1685096469294,426.0,465.0
416,1685096469294,280.0,365.0
417,1685096469294,402.0,404.0
418,1685096469294,377.0,437.0
419,1685096469294,403.0,425.0
420,1685096469294,379.0,447.0
421,1685096469294,501.0,443.0
422,1685096469294,460.0,476.0
423,1685096469294,536.0,452.0
424,1685096469294,456.0,455.0
425,1685096469294,543.0,447.0
426,1685096469294,461.0,437.0
427,1685096469294,485.0,451.0
428,1685096469294,394.0,401.0
429,1685096469294,497.0,456.0
430,1685096469294,331.0,397.0
431,1685096469294,368.0,395.0
432,1685096469294,489.0,454.0
433,1685096469294,324.0,409.0
434,1685096469294,368.0,388.0
435,1685096469294,396.0,451.0
436,1685096469294,473.0,454.0
437,1685096469294,430.0,461.0
438,1685096469294,534.0,461.0
439,1685096469294,474.0,471.0
440,1685096469294,535.0,435.0
441,1685096469294,449.0,461.0
442,1685096469294,520.0,429.0
443,1685096469294,439.0,429.0
444,1685096469294,473.0,450.0
445,1685096469294,335.0,382.0
446,1685096469294,480.0,446.0
447,1685096469294,394.0,439.0
448,1685096469294,284.0,371.0
449,1685096469294,435.0,420.0
450,1685096469294,384.0,428.0
451,1685096469294,383.0,421.0
452,1685096469294,381.0,438.0
453,1685096469294,500.0,458.0
454,1685096469294,453.0,483.0
455,1685096469294,516.0,437.0
456,1685096469294,456.0,467.0
457,1685096469294,537.0,440.0
458,1685096469294,443.0,441.0
459,1685096469294,486.0,441.0
460,1685096469294,404.0,396.0
461,1685096469294,500.0,471.0
462,1685096469294,320.0,392.0
463,1685096469294,417.0,413.0
464,1685096469294,481.0,451.0
465,1685096469294,306.0,401.0
466,1685096469294,385.0,400.0
467,1685096469294,378.0,437.0
468,1685096469294,438.0,446.0
469,1685096469294,397.0,452.0
470,1685096469294,511.0,448.0
471,1685096469294,465.0,483.0
472,1685096469294,534.0,441.0
473,1685096469294,473.0,470.0
474,1685096469294,560.0,440.0
475,1685096469294,457.0,432.0
476,1685096469294,490.0,452.0
477,1685096469294,350.0,372.0
478,1685096469294,489.0,460.0
479,1685096469294,368.0,426.0
480,1685096469294,302.0,366.0
481,1685096469294,457.0,424.0
482,1685096469294,370.0,441.0
483,1685096469294,360.0,400.0
484,1685096469294,374.0,450.0
485,1685096469294,499.0,460.0
486,1685096469294,451.0,477.0
487,1685096469294,536.0,441.0
488,1685096469294,470.0,474.0
489,1685096469294,548.0,443.0
490,1685096469294,446.0,446.0
491,1685096469294,498.0,424.0
492,1685096469294,412.0,407.0
493,1685096469294,483.0,459.0
494,1685096469294,310.0,381.0
495,1685096469294,434.0,426.0
496,1685096469294,448.0,459.0
497,1685096469294,285.0,389.0
498,1685096469294,397.0,401.0
499,1685096469294,398.0,450.0
500,1685096469294,435.0,439.0
501,1685096469294,391.0,450.0
502,1685096469294,510.0,449.0
503,1685096469294,460.0,486.0
504,1685096469294,532.0,438.0
505,1685096469294,446.0,453.0
506,1685096469294,518.0,428.0
507,1685096469294,429.0,426.0
508,1685096469294,478.0,442.0
509,1685096469294,373.0,387.0
510,1685096469294,507.0,458.0
511,1685096469294,349.0,409.0
512,1685096469294,354.0,390.0
513,1685096469294,489.0,458.0
514,1685096469294,346.0,429.0
515,1685096469294,360.0,397.0
516,1685096469294,392.0,448.0
517,1685096469294,492.0,452.0
518,1685096469294,426.0,475.0
519,1685096469294,525.0,448.0
520,1685096469294,455.0,478.0
521,1685096469294,529.0,433.0
522,1685096469294,443.0,457.0
523,1685096469294,514.0,431.0
524,1685096469294,450.0,421.0
525,1685096469294,483.0,451.0
526,1685096469294,335.0,380.0
527,1685096469294,480.0,435.0
528,1685096469294,420.0,437.0
529,1685096469294,277.0,380.0
530,1685096469294,406.0,402.0
531,1685096469294,384.0,449.0
532,1685096469294,391.0,411.0
533,1685096469294,370.0,442.0
534,1685096469294,494.0,450.0
535,1685096469294,455.0,487.0
536,1685096469294,536.0,440.0
537,1685096469294,470.0,480.0
538,1685096469294,552.0,438.0
539,1685096469294,466.0,452.0
540,1685096469294,494.0,433.0
541,1685096469294,400.0,396.0
542,1685096469294,492.0,462.0
543,1685096469294,315.0,396.0
544,1685096469294,376.0,397.0
545,1685096469294,491.0,463.0
546,1685096469294,315.0,413.0
547,1685096469294,369.0,391.0
548,1685096469294,378.0,445.0
549,1685096469294,464.0,442.0
550,1685096469294,418.0,461.0
551,1685096469294,540.0,464.0
552,1685096469294,477.0,480.0
553,1685096469294,544.0,445.0
554,1685096469294,447.0,457.0
555,1685096469294,528.0,432.0
556,1685096469294,444.0,432.0
557,1685096469294,468.0,429.0
558,1685096469294,336.0,378.0
559,1685096469294,477.0,440.0
560,1685096469294,380.0,427.0
561,1685096469294,289.0,378.0
562,1685096469294,451.0,423.0
563,1685096469294,389.0,445.0
564,1685096469294,388.0,414.0
565,1685096469294,378.0,442.0
566,1685096469294,471.0,436.0
567,1685096469294,471.0,506.0
568,1685096469294,530.0,436.0
569,1685096469294,456.0,467.0
570,1685096469294,535.0,432.0
571,1685096469294,441.0,454.0
572,1685096469294,487.0,434.0
573,1685096469294,405.0,393.0
574,1685096469294,502.0,469.0
575,1685096469294,314.0,390.0
576,1685096469294,411.0,417.0
577,1685096469294,480.0,453.0
578,1685096469294,306.0,402.0
579,1685096469294,389.0,393.0
580,1685096469294,394.0,443.0
581,1685096469294,445.0,441.0
582,1685096469294,397.0,453.0
583,1685096469294,504.0,447.0
584,1685096469294,464.0,481.0
585,1685096469294,528.0,435.0
586,1685096469294,447.0,462.0
587,1685096469294,532.0,428.0
588,1685096469294,446.0,430.0
589,1685096469294,483.0,446.0
590,1685096469294,357.0,384.0
591,1685096469294,501.0,460.0
592,1685096469294,370.0,429.0
593,1685096469294,318.0,381.0
594,1685096469294,470.0,433.0
595,1685096469294,358.0,432.0
596,1685096469294,365.0,399.0
597,1685096469294,376.0,441.0
598,1685096469294,490.0,450.0
599,1685096469294,444.0,481.0
600,1685096469294,524.0,443.0
601,1685096469294,458.0,477.0
602,1685096469294,540.0,437.0
603,1685096469294,445.0,450.0
604,1685096469294,514.0,435.0
605,1685096469294,432.0,411.0
606,1685096469294,489.0,453.0
607,1685096469294,322.0,387.0
608,1685096469294,449.0,429.0
609,1685096469294,438.0,451.0
610,1685096469294,280.0,378.0
611,1685096469294,396.0,395.0
612,1685096469294,378.0,433.0
613,1685096469294,413.0,430.0
614,1685096469294,377.0,450.0
615,1685096469294,509.0,457.0
616,1685096469306,476.0,485.0
617,1685096469306,547.0,445.0
618,1685096469306,457.0,467.0
619,1685096469306,547.0,438.0
620,1685096469306,455.0,436.0
621,1685096469306,485.0,443.0
622,1685096469306,386.0,388.0
623,1685096469306,492.0,458.0
624,1685096469306,331.0,402.0
625,1685096469306,351.0,382.0
626,1685096469306,489.0,460.0
627,1685096469306,328.0,424.0
628,1685096469306,361.0,390.0
629,1685096469306,389.0,449.0
630,1685096469306,492.0,457.0
631,1685096469306,438.0,467.0
632,1685096469306,529.0,450.0
633,1685096469306,468.0,479.0
634,1685096469306,537.0,436.0
635,1685096469306,438.0,454.0
636,1685096469306,511.0,430.0
637,1685096469306,432.0,413.0
638,1685096469306,474.0,451.0
639,1685096469306,326.0,379.0
640,1685096469306,472.0,443.0
641,1685096469306,422.0,452.0
642,1685096469306,278.0,368.0
643,1685096469306,441.0,425.0
644,1685096469306,390.0,441.0
645,1685096469306,391.0,426.0
646,1685096469306,385.0,442.0
647,1685096469306,511.0,456.0
648,1685096469306,456.0,475.0
649,1685096469306,523.0,438.0
650,1685096469306,444.0,455.0
651,1685096469306,535.0,437.0
652,1685096469306,438.0,440.0
653,1685096469306,489.0,438.0
654,1685096469306,409.0,398.0
655,1685096469306,503.0,463.0
656,1685096469306,322.0,388.0
657,1685096469306,402.0,405.0
658,1685096469306,488.0,455.0
659,1685096469306,314.0,413.0
660,1685096469306,373.0,393.0
661,1685096469306,391.0,442.0
662,1685096469306,453.0,441.0
663,1685096469306,399.0,464.0
664,1685096469306,513.0,441.0
665,1685096469306,467.0,483.0
666,1685096469306,539.0,444.0
667,1685096469306,451.0,459.0
668,1685096469306,540.0,443.0
669,1685096469306,450.0,425.0
670,1685096469306,489.0,459.0
671,1685096469306,348.0,382.0
672,1685096469306,488.0,444.0
673,1685096469306,381.0,428.0
674,1685096469306,293.0,379.0
675,1685096469306,446.0,420.0
676,1685096469306,365.0,436.0
677,1685096469306,361.0,398.0
678,1685096469306,373.0,436.0
679,1685096469306,496.0,457.0
680,1685096469306,455.0,480.0
681,1685096469306,537.0,447.0
682,1685096469306,461.0,466.0
683,1685096469306,545.0,449.0
684,1685096469306,452.0,445.0
685,1685096469310,502.0,438.0
686,1685096469310,413.0,404.0
687,1685096469310,492.0,456.0
688,1685096469310,305.0,384.0
689,1685096469310,423.0,419.0
690,1685096469310,460.0,458.0
691,1685096469310,291.0,394.0
692,1685096469310,386.0,397.0
693,1685096469310,398.0,452.0
694,1685096469310,431.0,441.0
695,1685096469310,399.0,450.0
696,1685096469310,516.0,450.0
697,1685096469310,476.0,492.0
698,1685096469310,537.0,443.0
699,1685096469310,450.0,451.0
700,1685096469310,527.0,436.0
701,1685096469310,448.0,433.0
702,1685096469310,477.0,442.0
703,1685096469310,368.0,387.0
704,1685096469310,500.0,450.0
705,1685096469310,353.0,413.0
706,1685096469310,336.0,388.0
707,1685096469310,484.0,445.0
708,1685096469310,354.0,435.0
709,1685096469310,367.0,399.0
710,1685096469310,390.0,435.0
711,1685096469310,498.0,459.0
712,1685096469310,444.0,480.0
713,1685096469310,526.0,445.0
714,1685096469310,458.0,466.0
715,1685096469310,538.0,439.0
716,1685096469310,442.0,453.0
717,1685096469310,507.0,435.0
718,1685096469310,423.0,418.0
719,1685096469310,472.0,437.0
720,1685096469310,325.0,397.0
721,1685096469310,458.0,423.0
722,1685096469310,439.0,460.0
723,1685096469310,283.0,384.0
724,1685096469310,415.0,402.0
725,1685096469310,396.0,448.0
726,1685096469310,392.0,424.0
727,1685096469310,369.0,442.0
728,1685096469310,499.0,447.0
729,1685096469310,457.0,481.0
730,1685096469310,526.0,436.0
731,1685096469310,454.0,465.0
732,1685096469310,546.0,438.0
733,1685096469310,462.0,442.0
734,1685096469310,490.0,440.0
735,1685096469310,400.0,401.0
736,1685096469310,504.0,457.0
737,1685096469310,334.0,404.0
738,1685096469310,370.0,389.0
739,1685096469310,492.0,459.0
740,1685096469310,329.0,415.0
741,1685096469310,358.0,398.0
742,1685096469310,387.0,444.0
743,1685096469310,465.0,445.0
744,1685096469310,419.0,474.0
745,1685096469310,532.0,451.0
746,1685096469310,474.0,482.0
747,1685096469310,551.0,451.0
748,1685096469310,449.0,452.0
749,1685096469310,533.0,444.0
750,1685096469310,448.0,424.0
751,1685096469310,481.0,450.0
752,1685096469310,339.0,373.0
753,1685096469310,471.0,444.0
754,1685096469310,387.0,432.0
755,1685096469310,266.0,368.0
756,1685096469310,431.0,410.0
757,1685096469310,379.0,446.0
758,1685096469310,377.0,415.0
759,1685096469310,388.0,445.0
760,1685096469310,511.0,456.0
761,1685096469310,461.0,481.0
762,1685096469310,528.0,442.0
763,1685096469310,459.0,471.0
764,1685096469310,546.0,433.0
765,1685096469310,442.0,438.0
766,1685096469310,481.0,434.0
767,1685096469310,402.0,393.0
768,1685096469310,495.0,463.0
769,1685096469310,314.0,389.0
770,1685096469310,408.0,417.0
771,1685096469310,500.0,470.0
772,1685096469310,305.0,409.0
773,1685096469310,359.0,380.0
774,1685096469310,409.0,456.0
775,1685096469310,449.0,445.0
776,1685096469310,409.0,471.0
777,1685096469310,515.0,453.0
778,1685096469310,469.0,482.0
779,1685096469310,523.0,427.0
780,1685096469310,444.0,456.0
781,1685096469310,531.0,448.0
782,1685096469310,459.0,430.0
783,1685096469310,491.0,455.0
784,1685096469310,357.0,387.0
785,1685096469310,495.0,452.0
786,1685096469310,380.0,427.0
787,1685096469310,309.0,378.0
788,1685096469310,461.0,429.0
789,1685096469310,360.0,433.0
790,1685096469310,352.0,396.0
791,1685096469310,371.0,441.0
792,1685096469310,473.0,447.0
793,1685096469310,451.0,477.0
794,1685096469310,527.0,450.0
795,1685096469310,456.0,464.0
796,1685096469310,549.0,443.0
797,1685096469310,457.0,457.0
798,1685096469310,513.0,432.0
799,1685096469310,428.0,406.0
800,1685096469310,494.0,457.0
801,1685096469310,319.0,376.0
802,1685096469310,433.0,426.0
803,1685096469310,442.0,447.0
804,1685096469310,279.0,394.0
805,1685096469310,395.0,401.0
806,1685096469310,397.0,442.0
807,1685096469310,413.0,430.0
808,1685096469310,386.0,451.0
809,1685096469310,507.0,449.0
810,1685096469310,471.0,483.0
811,1685096469310,548.0,440.0
812,1685096469310,456.0,464.0
813,1685096469310,571.0,444.0
814,1685096469310,455.0,433.0
815,1685096469310,471.0,441.0
816,1685096469310,357.0,384.0
817,1685096469310,490.0,458.0
818,1685096469310,345.0,421.0
819,1685096469310,332.0,396.0
820,1685096469310,486.0,451.0
821,1685096469310,343.0,427.0
822,1685096469310,361.0,385.0
823,1685096469310,403.0,452.0
824,1685096469310,495.0,456.0
825,1685096469310,442.0,476.0
826,1685096469310,532.0,446.0
827,1685096469310,458.0,468.0
828,1685096469310,537.0,437.0
829,1685096469310,441.0,444.0
830,1685096469310,511.0,440.0
831,1685096469310,430.0,410.0
832,1685096469310,483.0,457.0
833,1685096469310,330.0,378.0
834,1685096469310,460.0,440.0
835,1685096469310,432.0,450.0
836,1685096469310,282.0,383.0
837,1685096469310,414.0,401.0
838,1685096469310,387.0,442.0
839,1685096469310,395.0,420.0
840,1685096469310,375.0,447.0
841,1685096469310,502.0,450.0
842,1685096469310,458.0,487.0
843,1685096469310,523.0,440.0
844,1685096469310,457.0,464.0
845,1685096469310,546.0,441.0
846,1685096469310,453.0,440.0
847,1685096469310,496.0,448.0
848,1685096469310,401.0,391.0
849,1685096469310,504.0,455.0
850,1685096469310,332.0,403.0
851,1685096469310,371.0,389.0
852,1685096469310,493.0,463.0
853,1685096469310,314.0,415.0
854,1685096469310,358.0,388.0
855,1685096469310,395.0,447.0
856,1685096469310,466.0,446.0
857,1685096469310,413.0,468.0
858,1685096469310,527.0,445.0
859,1685096469310,476.0,486.0
860,1685096469310,548.0,440.0
861,1685096469310,452.0,458.0
862,1685096469310,528.0,436.0
863,1685096469310,447.0,426.0
864,1685096469310,485.0,453.0
865,1685096469310,325.0,372.0
866,1685096469310,468.0,439.0
867,1685096469310,383.0,438.0
868,1685096469310,281.0,374.0
869,1685096469310,443.0,419.0
870,1685096469310,377.0,445.0
871,1685096469310,369.0,407.0
872,1685096469310,375.0,444.0
873,1685096469310,491.0,450.0
874,1685096469310,480.0,496.0
875,1685096469310,528.0,429.0
876,1685096469310,459.0,476.0
877,1685096469310,544.0,434.0
878,1685096469310,442.0,447.0
879,1685096469310,481.0,443.0
880,1685096469310,414.0,405.0
881,1685096469310,490.0,456.0
882,1685096469310,320.0,389.0
883,1685096469310,422.0,416.0
884,1685096469310,478.0,459.0
885,1685096469310,298.0,407.0
886,1685096469310,389.0,400.0
887,1685096469310,411.0,451.0
888,1685096469310,441.0,442.0
889,1685096469310,391.0,455.0
890,1685096469310,507.0,445.0
891,1685096469310,470.0,481.0
892,1685096469310,535.0,445.0
893,1685096469310,450.0,458.0
894,1685096469310,531.0,425.0
895,1685096469310,446.0,437.0
896,1685096469310,485.0,444.0
897,1685096469310,359.0,390.0
898,1685096469310,496.0,461.0
899,1685096469310,375.0,419.0
900,1685096469310,313.0,382.0
901,1685096469310,476.0,435.0
902,1685096469310,358.0,428.0
903,1685096469310,363.0,394.0
904,1685096469310,382.0,442.0
905,1685096469310,495.0,459.0
906,1685096469310,454.0,480.0
907,1685096469310,534.0,448.0
908,1685096469310,460.0,470.0
909,1685096469310,549.0,440.0
910,1685096469310,448.0,448.0
911,1685096469310,508.0,433.0
912,1685096469310,422.0,412.0
913,1685096469310,485.0,454.0
914,1685096469310,309.0,379.0
915,1685096469310,439.0,427.0
916,1685096469310,444.0,452.0
917,1685096469310,280.0,392.0
918,1685096469310,385.0,397.0
919,1685096469310,398.0,442.0
920,1685096469310,406.0,434.0
921,1685096469310,378.0,449.0
922,1685096469310,510.0,443.0
923,1685096469310,469.0,482.0
924,1685096469310,537.0,440.0
925,1685096469310,463.0,463.0
926,1685096469310,549.0,441.0
927,1685096469310,456.0,434.0
928,1685096469310,491.0,436.0
929,1685096469310,387.0,392.0
930,1685096469310,495.0,458.0
931,1685096469310,336.0,397.0
932,1685096469310,340.0,389.0
933,1685096469310,483.0,459.0
934,1685096469310,333.0,413.0
935,1685096469310,361.0,397.0
936,1685096469310,397.0,448.0
937,1685096469310,487.0,457.0
938,1685096469310,439.0,473.0
939,1685096469310,532.0,452.0
940,1685096469310,465.0,479.0
941,1685096469310,539.0,437.0
942,1685096469310,444.0,450.0
943,1685096469310,513.0,434.0
944,1685096469310,432.0,419.0
945,1685096469310,469.0,449.0
946,1685096469310,326.0,377.0
947,1685096469310,466.0,439.0
948,1685096469310,419.0,446.0
949,1685096469310,275.0,380.0
950,1685096469310,430.0,411.0
951,1685096469310,385.0,437.0
952,1685096469310,387.0,413.0
953,1685096469310,380.0,448.0
954,1685096469310,517.0,452.0
955,1685096469310,460.0,479.0
956,1685096469310,525.0,438.0
957,1685096469310,449.0,466.0
958,1685096469310,539.0,433.0
959,1685096469310,446.0,439.0
960,1685096469310,491.0,440.0
961,1685096469310,396.0,393.0
962,1685096469310,495.0,455.0
963,1685096469325,334.0,410.0
964,1685096469325,390.0,401.0
965,1685096469325,491.0,457.0
966,1685096469325,315.0,407.0
967,1685096469325,380.0,396.0
968,1685096469325,401.0,445.0
969,1685096469325,451.0,445.0
970,1685096469325,402.0,459.0
971,1685096469325,521.0,457.0
972,1685096469325,471.0,482.0
973,1685096469325,545.0,452.0
974,1685096469325,457.0,453.0
975,1685096469325,533.0,437.0
976,1685096469325,453.0,434.0
977,1685096469325,485.0,443.0
978,1685096469325,341.0,376.0
979,1685096469325,483.0,450.0
980,1685096469325,379.0,427.0
981,1685096469325,284.0,374.0
982,1685096469325,449.0,416.0
983,1685096469325,374.0,441.0
984,1685096469325,361.0,410.0
985,1685096469325,381.0,440.0
986,1685096469325,514.0,462.0
987,1685096469325,464.0,482.0
988,1685096469325,531.0,437.0
989,1685096469325,458.0,471.0
990,1685096469325,542.0,441.0
991,1685096469325,450.0,451.0
992,1685096469325,494.0,432.0
993,1685096469325,406.0,401.0
994,1685096469325,484.0,462.0
995,1685096469325,307.0,386.0
996,1685096469325,415.0,412.0
997,1685096469325,467.0,457.0
998,1685096469325,290.0,398.0
999,1685096469325,386.0,390.0
1000,1685096469325,393.0,439.0
1001,1685096469325,441.0,444.0
1002,1685096469325,396.0,453.0
1003,1685096469325,509.0,443.0
1004,1685096469325,473.0,480.0
1005,1685096469325,540.0,440.0
1006,1685096469325,446.0,455.0
1007,1685096469325,533.0,437.0
1008,1685096469325,444.0,434.0
1009,1685096469325,487.0,453.0
1010,1685096469325,359.0,378.0
1011,1685096469325,502.0,459.0
1012,1685096469328,357.0,415.0
1013,1685096469328,322.0,380.0
1014,1685096469328,479.0,444.0
1015,1685096469328,351.0,431.0
1016,1685096469328,357.0,398.0
1017,1685096469328,391.0,450.0
1018,1685096469328,506.0,458.0
1019,1685096469328,442.0,482.0
1020,1685096469328,526.0,443.0
1021,1685096469328,461.0,462.0
1022,1685096469328,544.0,439.0
1023,1685096469328,450.0,451.0
1024,1685096469328,510.0,430.0
1025,1685096469328,425.0,416.0
1026,1685096469328,482.0,454.0
1027,1685096469328,317.0,380.0
1028,1685096469328,439.0,416.0
1029,1685096469328,442.0,457.0
1030,1685096469328,271.0,375.0
1031,1685096469328,409.0,410.0
1032,1685096469328,382.0,435.0
1033,1685096469328,406.0,432.0
1034,1685096469328,376.0,438.0
1035,1685096469328,501.0,442.0
1036,1685096469328,479.0,491.0
1037,1685096469328,541.0,440.0
1038,1685096469328,457.0,462.0
1039,1685096469328,543.0,438.0
1040,1685096469329,446.0,434.0
1041,1685096469329,486.0,445.0
1042,1685096469329,381.0,394.0
1043,1685096469329,490.0,454.0
1044,1685096469329,341.0,408.0
1045,1685096469329,353.0,396.0
1046,1685096469329,490.0,455.0
1047,1685096469329,332.0,424.0
1048,1685096469329,360.0,390.0
1049,1685096469329,382.0,440.0
1050,1685096469329,483.0,448.0
1051,1685096469329,428.0,472.0
1052,1685096469329,533.0,451.0
1053,1685096469329,470.0,474.0
1054,1685096469329,535.0,428.0
1055,1685096469329,449.0,463.0
1056,1685096469329,517.0,436.0
1057,1685096469329,482.0,424.0
1058,1685096469329,504.0,458.0
1059,1685096469329,329.0,380.0
1060,1685096469330,460.0,437.0
1061,1685096469330,407.0,438.0
1062,1685096469330,263.0,370.0
1063,1685096469330,429.0,413.0
1064,1685096469330,388.0,442.0
1065,1685096469330,378.0,411.0
1066,1685096469330,382.0,449.0
1067,1685096469330,512.0,453.0
1068,1685096469330,465.0,484.0
1069,1685096469330,529.0,432.0
1070,1685096469330,458.0,470.0
1071,1685096469330,543.0,437.0
1072,1685096469330,450.0,444.0
1073,1685096469330,484.0,436.0
1074,1685096469330,398.0,391.0
1075,1685096469330,496.0,463.0
1076,1685096469330,313.0,388.0
1077,1685096469330,388.0,397.0
1078,1685096469330,499.0,466.0
1079,1685096469330,305.0,406.0
1080,1685096469330,372.0,396.0
1081,1685096469330,409.0,452.0
1082,1685096469330,464.0,444.0
1083,1685096469330,406.0,459.0
1084,1685096469330,523.0,444.0
1085,1685096469330,473.0,483.0
1086,1685096469330,546.0,441.0
1087,1685096469330,451.0,461.0
1088,1685096469330,524.0,436.0
1089,1685096469330,442.0,424.0
1090,1685096469330,481.0,446.0
1091,1685096469332,339.0,379.0
1092,1685096469332,483.0,449.0
1093,1685096469332,388.0,424.0
1094,1685096469332,294.0,376.0
1095,1685096469332,458.0,429.0
1096,1685096469332,372.0,440.0
1097,1685096469332,367.0,404.0
1098,1685096469332,375.0,435.0
1099,1685096469332,504.0,454.0
1100,1685096469332,450.0,486.0
1101,1685096469332,533.0,449.0
1102,1685096469332,451.0,454.0
1103,1685096469332,546.0,440.0
1104,1685096469332,449.0,447.0
1105,1685096469332,498.0,438.0
1106,1685096469332,422.0,402.0
1107,1685096469332,498.0,461.0
1108,1685096469332,319.0,386.0
1109,1685096469332,421.0,415.0
1110,1685096469332,463.0,451.0
1111,1685096469332,288.0,394.0
1112,1685096469332,381.0,397.0
1113,1685096469332,391.0,440.0
1114,1685096469332,426.0,436.0
1115,1685096469332,393.0,455.0
1116,1685096469332,512.0,445.0
1117,1685096469332,476.0,481.0
1118,1685096469332,549.0,446.0
1119,1685096469332,461.0,460.0
1120,1685096469332,545.0,441.0
1121,1685096469332,456.0,433.0
1122,1685096469332,481.0,441.0
1123,1685096469332,356.0,381.0
1124,1685096469332,489.0,454.0
1125,1685096469332,349.0,417.0
1126,1685096469332,318.0,389.0
1127,1685096469332,473.0,446.0
1128,1685096469332,346.0,429.0
1129,1685096469332,359.0,398.0
1130,1685096469332,393.0,453.0
1131,1685096469332,509.0,456.0
1132,1685096469332,448.0,480.0
1133,1685096469332,540.0,452.0
1134,1685096469332,459.0,468.0
1135,1685096469332,539.0,434.0
1136,1685096469332,439.0,446.0
1137,1685096469332,497.0,426.0
1138,1685096469332,413.0,410.0
1139,1685096469332,481.0,459.0
1140,1685096469332,315.0,380.0
1141,1685096469332,448.0,431.0
1142,1685096469332,446.0,461.0
1143,1685096469332,282.0,385.0
1144,1685096469332,419.0,406.0
1145,1685096469332,398.0,445.0
1146,1685096469332,405.0,427.0
1147,1685096469332,371.0,441.0
1148,1685096469332,510.0,448.0
1149,1685096469332,462.0,485.0
1150,1685096469332,527.0,443.0
1151,1685096469332,445.0,463.0
1152,1685096469332,536.0,431.0
1153,1685096469332,458.0,443.0
1154,1685096469332,489.0,444.0
1155,1685096469332,390.0,385.0
1156,1685096469332,509.0,463.0
1157,1685096469332,342.0,408.0
1158,1685096469332,355.0,390.0
1159,1685096469332,484.0,456.0
1160,1685096469332,324.0,423.0
1161,1685096469332,350.0,387.0
1162,1685096469332,381.0,446.0
1163,1685096469332,479.0,441.0
1164,1685096469332,414.0,475.0
1165,1685096469332,524.0,450.0
1166,1685096469332,475.0,477.0
1167,1685096469332,544.0,439.0
1168,1685096469332,459.0,463.0
1169,1685096469332,531.0,440.0
1170,1685096469332,447.0,423.0
1171,1685096469332,485.0,457.0
1172,1685096469332,363.0,390.0
1173,1685096469332,461.0,428.0
1174,1685096469332,394.0,445.0
1175,1685096469332,263.0,379.0
1176,1685096469332,421.0,416.0
1177,1685096469332,385.0,447.0
1178,1685096469332,387.0,416.0
1179,1685096469332,380.0,439.0
1180,1685096469332,516.0,454.0
1181,1685096469332,471.0,476.0
1182,1685096469332,539.0,448.0
1183,1685096469332,463.0,463.0
1184,1685096469332,541.0,433.0
1185,1685096469332,444.0,439.0
1186,1685096469332,481.0,433.0
1187,1685096469332,386.0,394.0
1188,1685096469332,492.0,460.0
1189,1685096469332,315.0,395.0
1190,1685096469332,393.0,408.0
1191,1685096469332,502.0,456.0
1192,1685096469332,311.0,419.0
1193,1685096469332,377.0,394.0
1194,1685096469332,408.0,445.0
1195,1685096469332,476.0,455.0
1196,1685096469332,405.0,454.0
1197,1685096469332,523.0,446.0
1198,1685096469332,476.0,489.0
1199,1685096469332,530.0,430.0
1200,1685096469332,446.0,455.0
1201,1685096469332,525.0,430.0
1202,1685096469332,446.0,436.0
1203,1685096469332,479.0,459.0
1204,1685096469332,341.0,374.0
1205,1685096469332,489.0,449.0
1206,1685096469332,387.0,430.0
1207,1685096469332,299.0,385.0
1208,1685096469332,456.0,421.0
1209,1685096469332,371.0,439.0
1210,1685096469332,365.0,398.0
1211,1685096469332,383.0,443.0
1212,1685096469338,497.0,455.0
1213,1685096469338,452.0,488.0
1214,1685096469338,523.0,435.0
1215,1685096469338,450.0,459.0
1216,1685096469338,551.0,446.0
1217,1685096469338,456.0,449.0
1218,1685096469341,502.0,437.0
1219,1685096469341,421.0,408.0
1220,1685096469341,495.0,457.0
1221,1685096469341,319.0,394.0
1222,1685096469382,418.0,413.0
1223,1685096469382,467.0,452.0
1224,1685096469382,287.0,399.0
1225,1685096469414,392.0,399.0
1226,1685096469414,397.0,444.0
1227,1685096469414,429.0,437.0
1228,1685096469414,387.0,451.0
1229,1685096469446,517.0,442.0
1230,1685096469446,481.0,478.0
1231,1685096469446,551.0,441.0
1232,1685096469482,460.0,456.0
1233,1685096469482,547.0,438.0
1234,1685096469482,458.0,438.0
1235,1685096469482,487.0,443.0
1236,1685096469515,361.0,380.0
1237,1685096469515,494.0,451.0
1238,1685096469515,349.0,416.0
1239,1685096469515,309.0,375.0
1240,1685096469550,466.0,436.0
1241,1685096469550,355.0,434.0
1242,1685096469550,359.0,405.0
1243,1685096469583,391.0,436.0
1244,1685096469583,514.0,467.0
1245,1685096469583,453.0,478.0
1246,1685096469583,534.0,455.0
1247,1685096469616,467.0,475.0
1248,1685096469616,540.0,435.0
1249,1685096469616,439.0,446.0
1250,1685096469648,500.0,429.0
1251,1685096469648,419.0,411.0
1252,1685096469648,483.0,453.0
1253,1685096469648,322.0,383.0
1254,1685096469681,444.0,425.0
1255,1685096469682,445.0,460.0
1256,1685096469682,281.0,381.0
1257,1685096469715,416.0,403.0
1258,1685096469715,402.0,446.0
1259,1685096469715,413.0,427.0
1260,1685096469715,387.0,452.0
1261,1685096469748,516.0,445.0
1262,1685096469748,465.0,478.0
1263,1685096469748,531.0,434.0
1264,1685096469773,439.0,457.0
1265,1685096469773,530.0,435.0
1266,1685096469773,443.0,445.0
1267,1685096469773,484.0,439.0
1268,1685096469807,380.0,388.0
1269,1685096469807,491.0,460.0
1270,1685096469807,349.0,412.0
1271,1685096469807,362.0,394.0
1272,1685096469850,501.0,459.0
1273,1685096469850,329.0,419.0
1274,1685096469850,356.0,388.0
1275,1685096469882,397.0,445.0
1276,1685096469882,473.0,452.0
1277,1685096469882,409.0,466.0
1278,1685096469882,526.0,447.0
1279,1685096469916,465.0,475.0
1280,1685096469916,544.0,436.0
1281,1685096469916,455.0,461.0
1282,1685096469948,538.0,433.0
1283,1685096469948,457.0,436.0
1284,1685096469948,484.0,451.0
1285,1685096469948,314.0,366.0
1286,1685096469979,476.0,442.0
1287,1685096469979,401.0,442.0
1288,1685096469979,257.0,374.0
1289,1685096470015,420.0,411.0
1290,1685096470015,372.0,441.0
1291,1685096470015,367.0,410.0
1292,1685096470015,377.0,443.0
1293,1685096470049,512.0,457.0
1294,1685096470049,470.0,486.0
1295,1685096470049,548.0,448.0
1296,1685096470083,467.0,466.0
1297,1685096470083,560.0,438.0
1298,1685096470083,463.0,444.0
1299,1685096470083,486.0,432.0
1300,1685096470108,390.0,391.0
1301,1685096470108,490.0,459.0
1302,1685096470108,307.0,396.0
1303,1685096470108,398.0,409.0
1304,1685096470150,500.0,466.0
1305,1685096470150,300.0,403.0
1306,1685096470150,390.0,406.0
1307,1685096470181,412.0,453.0
1308,1685096470181,480.0,455.0
1309,1685096470181,417.0,474.0
1310,1685096470181,527.0,440.0
1311,1685096470219,480.0,484.0
1312,1685096470219,527.0,424.0
1313,1685096470219,443.0,459.0
1314,1685096470249,519.0,429.0
1315,1685096470249,433.0,424.0
1316,1685096470249,467.0,442.0
1317,1685096470249,333.0,382.0
1318,1685096470283,494.0,457.0
1319,1685096470283,395.0,438.0
1320,1685096470283,291.0,381.0
1321,1685096470317,462.0,426.0
1322,1685096470317,371.0,436.0
1323,1685096470317,382.0,414.0
1324,1685096470317,381.0,442.0
1325,1685096470349,504.0,459.0
1326,1685096470349,450.0,478.0
1327,1685096470349,512.0,430.0
1328,1685096470375,447.0,467.0
1329,1685096470375,542.0,430.0
1330,1685096470375,445.0,450.0
1331,1685096470375,499.0,435.0
1332,1685096470408,421.0,410.0
1333,1685096470408,511.0,467.0
1334,1685096470408,326.0,387.0
1335,1685096470408,424.0,414.0
1336,1685096470452,467.0,456.0
1337,1685096470452,286.0,405.0
1338,1685096470452,373.0,391.0
1339,1685096470483,384.0,441.0
1340,1685096470483,417.0,438.0
1341,1685096470483,372.0,446.0
1342,1685096470483,513.0,453.0
1343,1685096470518,482.0,495.0
1344,1685096470518,545.0,442.0
1345,1685096470518,472.0,468.0
1346,1685096470548,553.0,440.0
1347,1685096470548,461.0,441.0
1348,1685096470548,491.0,448.0
1349,1685096470548,359.0,385.0
1350,1685096470581,493.0,454.0
1351,1685096470581,350.0,417.0
1352,1685096470581,308.0,385.0
1353,1685096470612,464.0,429.0
1354,1685096470612,341.0,432.0
1355,1685096470612,358.0,396.0
1356,1685096470612,384.0,448.0
1357,1685096470643,509.0,459.0
1358,1685096470643,455.0,476.0
1359,1685096470643,540.0,452.0
1360,1685096470674,469.0,473.0
1361,1685096470674,547.0,438.0
1362,1685096470674,444.0,449.0
1363,1685096470674,498.0,425.0
1364,1685096470708,418.0,410.0
1365,1685096470708,482.0,453.0
1366,1685096470708,302.0,380.0
1367,1685096470708,434.0,425.0
1368,1685096470756,446.0,446.0
1369,1685096470756,278.0,388.0
1370,1685096470756,403.0,412.0
1371,1685096470772,402.0,442.0
1372,1685096470772,419.0,431.0
1373,1685096470772,393.0,454.0
1374,1685096470772,516.0,446.0
1375,1685096470818,469.0,483.0
1376,1685096470818,522.0,438.0
1377,1685096470818,439.0,455.0
1378,1685096470849,529.0,434.0
1379,1685096470849,445.0,444.0
1380,1685096470849,479.0,433.0
1381,1685096470849,387.0,393.0
1382,1685096470881,502.0,459.0
1383,1685096470881,347.0,412.0
1384,1685096470881,355.0,391.0
1385,1685096470913,496.0,453.0
1386,1685096470913,338.0,424.0
1387,1685096470913,375.0,397.0
1388,1685096470913,385.0,438.0
1389,1685096470944,474.0,454.0
1390,1685096470944,415.0,463.0
1391,1685096470944,526.0,458.0
1392,1685096470975,459.0,473.0
1393,1685096470975,546.0,444.0
1394,1685096470975,457.0,452.0
1395,1685096470975,526.0,437.0
1396,1685096471009,451.0,432.0
1397,1685096471009,485.0,453.0
1398,1685096471009,330.0,375.0
1399,1685096471009,462.0,432.0
1400,1685096471052,407.0,442.0
1401,1685096471052,262.0,372.0
1402,1685096471052,416.0,403.0
1403,1685096471083,377.0,437.0
1404,1685096471083,378.0,411.0
1405,1685096471083,374.0,441.0
1406,1685096471083,510.0,451.0
1407,1685096471119,466.0,476.0
1408,1685096471119,543.0,447.0
1409,1685096471119,458.0,460.0
1410,1685096471150,558.0,445.0
1411,1685096471150,463.0,450.0
1412,1685096471150,484.0,437.0
1413,1685096471150,391.0,394.0
1414,1685096471182,488.0,455.0
1415,1685096471182,310.0,397.0
1416,1685096471182,371.0,401.0
1417,1685096471213,492.0,464.0
1418,1685096471213,320.0,411.0
1419,1685096471213,370.0,388.0
1420,1685096471213,398.0,451.0
1421,1685096471245,479.0,448.0
1422,1685096471245,415.0,460.0
1423,1685096471245,538.0,455.0
1424,1685096471276,476.0,480.0
1425,1685096471276,538.0,432.0
1426,1685096471276,445.0,458.0
1427,1685096471276,517.0,424.0
1428,1685096471310,433.0,422.0
1429,1685096471310,477.0,460.0
1430,1685096471310,335.0,380.0
1431,1685096471310,481.0,455.0
1432,1685096471352,397.0,442.0
1433,1685096471352,290.0,374.0
1434,1685096471352,444.0,419.0
1435,1685096471383,373.0,437.0
1436,1685096471383,382.0,415.0
1437,1685096471383,387.0,439.0
1438,1685096471383,507.0,452.0
1439,1685096471419,450.0,483.0
1440,1685096471419,525.0,434.0
1441,1685096471419,454.0,472.0
1442,1685096471452,542.0,428.0
1443,1685096471452,436.0,445.0
1444,1685096471452,486.0,428.0
1445,1685096471452,410.0,408.0
1446,1685096471482,503.0,459.0
1447,1685096471482,321.0,391.0
1448,1685096471482,410.0,409.0
1449,1685096471514,472.0,465.0
1450,1685096471514,297.0,406.0
1451,1685096471514,382.0,399.0
1452,1685096471514,396.0,437.0
1453,1685096471553,435.0,435.0
1454,1685096471553,386.0,448.0
1455,1685096471553,517.0,449.0
1456,1685096471576,485.0,489.0
1457,1685096471576,543.0,441.0
1458,1685096471576,460.0,457.0
1459,1685096471576,554.0,445.0
1460,1685096471610,464.0,437.0
1461,1685096471610,487.0,442.0
1462,1685096471610,353.0,373.0
1463,1685096471610,492.0,459.0
1464,1685096471653,359.0,426.0
1465,1685096471653,300.0,379.0
1466,1685096471653,460.0,426.0
1467,1685096471685,349.0,434.0
1468,1685096471685,367.0,400.0
1469,1685096471685,380.0,446.0
1470,1685096471685,496.0,446.0
1471,1685096471720,449.0,483.0
1472,1685096471720,536.0,448.0
1473,1685096471720,469.0,471.0
1474,1685096471751,570.0,441.0
1475,1685096471751,454.0,453.0
1476,1685096471751,505.0,424.0
1477,1685096471751,428.0,416.0
1478,1685096471782,476.0,450.0
1479,1685096471782,313.0,381.0
1480,1685096471782,432.0,416.0
1481,1685096471814,439.0,458.0
1482,1685096471814,274.0,380.0
1483,1685096471814,401.0,399.0
1484,1685096471814,405.0,459.0
1485,1685096471848,425.0,426.0
1486,1685096471848,392.0,446.0
1487,1685096471848,520.0,453.0
1488,1685096471879,467.0,483.0
1489,1685096471879,531.0,442.0
1490,1685096471879,435.0,460.0
1491,1685096471879,534.0,428.0
1492,1685096471911,435.0,436.0
1493,1685096471911,478.0,438.0
1494,1685096471911,376.0,383.0
1495,1685096471911,494.0,461.0
1496,1685096471954,350.0,419.0
1497,1685096471954,347.0,390.0
1498,1685096471954,496.0,450.0
1499,1685096471986,339.0,422.0
1500,1685096471986,366.0,399.0
1501,1685096471986,391.0,444.0
1502,1685096471986,482.0,446.0
1503,1685096472020,433.0,467.0
1504,1685096472020,521.0,443.0
1505,1685096472020,463.0,471.0
1506,1685096472052,540.0,437.0
1507,1685096472052,439.0,452.0
1508,1685096472052,529.0,444.0
1509,1685096472052,437.0,410.0
1510,1685096472084,489.0,461.0
1511,1685096472084,325.0,381.0
1512,1685096472084,464.0,433.0
1513,1685096472115,429.0,452.0
1514,1685096472115,264.0,372.0
1515,1685096472115,406.0,409.0
1516,1685096472115,376.0,440.0
1517,1685096472147,375.0,415.0
1518,1685096472147,370.0,438.0
1519,1685096472147,500.0,447.0
1520,1685096472179,456.0,482.0
1521,1685096472179,537.0,438.0
1522,1685096472179,473.0,473.0
1523,1685096472179,563.0,446.0
1524,1685096472211,453.0,438.0
1525,1685096472211,494.0,438.0
1526,1685096472211,403.0,395.0
1527,1685096472211,490.0,460.0
1528,1685096472254,317.0,396.0
1529,1685096472254,363.0,388.0
1530,1685096472254,482.0,457.0
1531,1685096472286,317.0,417.0
1532,1685096472286,367.0,396.0
1533,1685096472286,392.0,444.0
1534,1685096472286,468.0,443.0
1535,1685096472322,416.0,471.0
1536,1685096472322,541.0,448.0
1537,1685096472322,478.0,485.0
1538,1685096472353,552.0,446.0
1539,1685096472353,449.0,456.0
1540,1685096472353,519.0,429.0
1541,1685096472353,441.0,428.0
1542,1685096472385,465.0,449.0
1543,1685096472385,329.0,372.0
1544,1685096472385,473.0,446.0
1545,1685096472417,382.0,441.0
1546,1685096472417,287.0,388.0
1547,1685096472417,445.0,411.0
1548,1685096472417,377.0,445.0
1549,1685096472449,386.0,412.0
1550,1685096472449,391.0,449.0
1551,1685096472449,514.0,456.0
1552,1685096472480,455.0,490.0
1553,1685096472480,518.0,430.0
1554,1685096472480,453.0,466.0
1555,1685096472480,540.0,433.0
1556,1685096472511,429.0,438.0
1557,1685096472511,478.0,426.0
1558,1685096472511,403.0,402.0
1559,1685096472511,499.0,465.0
1560,1685096472555,316.0,393.0
1561,1685096472555,421.0,414.0
1562,1685096472555,481.0,465.0
1563,1685096472586,288.0,399.0
1564,1685096472586,377.0,398.0
1565,1685096472586,397.0,444.0
1566,1685096472586,437.0,443.0
1567,1685096472622,395.0,458.0
1568,1685096472622,518.0,457.0
1569,1685096472622,470.0,479.0
1570,1685096472653,543.0,452.0
1571,1685096472653,454.0,450.0
1572,1685096472653,542.0,441.0
1573,1685096472653,460.0,439.0
1574,1685096472688,482.0,439.0
1575,1685096472688,354.0,381.0
1576,1685096472688,497.0,459.0
1577,1685096472721,368.0,428.0
1578,1685096472721,299.0,371.0
1579,1685096472721,463.0,437.0
1580,1685096472721,351.0,426.0
1581,1685096472754,363.0,402.0
1582,1685096472754,381.0,442.0
1583,1685096472754,492.0,449.0
1584,1685096472788,456.0,479.0
1585,1685096472788,541.0,446.0
1586,1685096472788,467.0,462.0
1587,1685096472788,566.0,453.0
1588,1685096472812,446.0,442.0
1589,1685096472812,512.0,444.0
1590,1685096472812,429.0,410.0
1591,1685096472812,486.0,445.0
1592,1685096472856,304.0,382.0
1593,1685096472856,425.0,411.0
1594,1685096472856,447.0,462.0
1595,1685096472887,279.0,388.0
1596,1685096472887,384.0,400.0
1597,1685096472887,393.0,452.0
1598,1685096472887,417.0,422.0
1599,1685096472923,396.0,462.0
1600,1685096472923,522.0,452.0
1601,1685096472923,469.0,481.0
1602,1685096472954,541.0,435.0
1603,1685096472954,443.0,462.0
1604,1685096472954,540.0,432.0
1605,1685096472954,438.0,437.0
1606,1685096472989,472.0,437.0
1607,1685096472989,370.0,399.0
1608,1685096472989,499.0,452.0
1609,1685096473022,347.0,421.0
1610,1685096473022,335.0,378.0
1611,1685096473022,496.0,447.0
1612,1685096473022,341.0,430.0
1613,1685096473055,362.0,399.0
1614,1685096473055,397.0,441.0
1615,1685096473055,494.0,453.0
1616,1685096473083,442.0,471.0
1617,1685096473083,539.0,458.0
1618,1685096473083,471.0,474.0
1619,1685096473083,546.0,432.0
1620,1685096473112,437.0,449.0
1621,1685096473112,504.0,433.0
1622,1685096473112,433.0,424.0
1623,1685096473112,474.0,452.0
1624,1685096473156,328.0,380.0
1625,1685096473156,454.0,435.0
1626,1685096473156,421.0,446.0
1627,1685096473189,268.0,373.0
1628,1685096473189,418.0,416.0
1629,1685096473189,384.0,445.0
1630,1685096473189,396.0,418.0
1631,1685096473226,393.0,450.0
1632,1685096473226,502.0,453.0
1633,1685096473226,451.0,478.0
1634,1685096473244,529.0,445.0
1635,1685096473244,449.0,455.0
1636,1685096473244,557.0,441.0
1637,1685096473244,451.0,444.0
1638,1685096473288,488.0,430.0
1639,1685096473288,403.0,400.0
1640,1685096473288,497.0,459.0
1641,1685096473320,330.0,400.0
1642,1685096473320,363.0,401.0
1643,1685096473320,495.0,464.0
1644,1685096473320,314.0,417.0
1645,1685096473353,366.0,399.0
1646,1685096473353,393.0,431.0
1647,1685096473353,461.0,448.0
1648,1685096473383,404.0,465.0
1649,1685096473383,545.0,461.0
1650,1685096473383,471.0,482.0
1651,1685096473383,563.0,450.0
1652,1685096473415,456.0,454.0
1653,1685096473415,531.0,435.0
1654,1685096473415,454.0,427.0
1655,1685096473415,475.0,444.0
1656,1685096473459,326.0,376.0
1657,1685096473459,470.0,435.0
1658,1685096473459,385.0,442.0
1659,1685096473474,271.0,371.0
1660,1685096473474,435.0,412.0
1661,1685096473474,373.0,434.0
1662,1685096473474,377.0,420.0
1663,1685096473523,388.0,446.0
1664,1685096473523,516.0,460.0
1665,1685096473523,459.0,479.0
1666,1685096473555,534.0,438.0
1667,1685096473555,464.0,468.0
1668,1685096473555,543.0,437.0
1669,1685096473555,436.0,448.0
1670,1685096473587,483.0,426.0
1671,1685096473587,404.0,408.0
1672,1685096473587,501.0,471.0
1673,1685096473623,309.0,390.0
1674,1685096473623,394.0,410.0
1675,1685096473623,489.0,469.0
1676,1685096473623,302.0,405.0
1677,1685096473654,377.0,398.0
1678,1685096473654,405.0,442.0
1679,1685096473654,449.0,446.0
1680,1685096473689,407.0,456.0
1681,1685096473689,521.0,443.0
1682,1685096473689,468.0,475.0
1683,1685096473689,535.0,439.0
1684,1685096473721,447.0,452.0
1685,1685096473721,536.0,443.0
1686,1685096473721,437.0,418.0
1687,1685096473721,468.0,444.0
1688,1685096473758,350.0,389.0
1689,1685096473758,496.0,457.0
1690,1685096473758,375.0,422.0
1691,1685096473790,312.0,380.0
1692,1685096473790,466.0,427.0
1693,1685096473790,362.0,436.0
1694,1685096473790,364.0,399.0
1695,1685096473825,371.0,435.0
1696,1685096473825,494.0,449.0
1697,1685096473825,438.0,476.0
1698,1685096473857,532.0,454.0
1699,1685096473857,469.0,466.0
1700,1685096473857,562.0,443.0
1701,1685096473857,455.0,450.0
1702,1685096473888,512.0,437.0
1703,1685096473888,431.0,410.0
1704,1685096473888,488.0,451.0
1705,1685096473924,321.0,382.0
1706,1685096473924,437.0,415.0
1707,1685096473924,440.0,452.0
1708,1685096473924,279.0,397.0
1709,1685096473957,386.0,399.0
1710,1685096473957,383.0,444.0
1711,1685096473957,420.0,428.0
1712,1685096473982,409.0,458.0
1713,1685096473982,511.0,452.0
1714,1685096473982,470.0,477.0
1715,1685096473982,544.0,448.0
1716,1685096474014,450.0,453.0
1717,1685096474014,550.0,437.0
1718,1685096474014,459.0,447.0
1719,1685096474014,472.0,435.0
1720,1685096474058,374.0,392.0
1721,1685096474058,483.0,448.0
1722,1685096474058,329.0,410.0
1723,1685096474091,326.0,389.0
1724,1685096474091,484.0,449.0
1725,1685096474091,356.0,430.0
1726,1685096474091,380.0,398.0
1727,1685096474125,405.0,452.0
1728,1685096474125,506.0,459.0
1729,1685096474125,442.0,476.0
1730,1685096474156,543.0,454.0
1731,1685096474156,467.0,471.0
1732,1685096474156,540.0,438.0
1733,1685096474156,431.0,443.0
1734,1685096474192,504.0,428.0
1735,1685096474192,430.0,419.0
1736,1685096474192,468.0,442.0
1737,1685096474224,319.0,384.0
1738,1685096474224,453.0,432.0
1739,1685096474224,445.0,456.0
1740,1685096474224,274.0,377.0
1741,1685096474252,419.0,405.0
1742,1685096474252,393.0,453.0
1743,1685096474252,405.0,421.0
1744,1685096474283,384.0,447.0
1745,1685096474283,498.0,454.0
1746,1685096474283,458.0,477.0
1747,1685096474283,534.0,436.0
1748,1685096474315,436.0,459.0
1749,1685096474315,547.0,435.0
1750,1685096474315,444.0,444.0
1751,1685096474315,483.0,433.0
1752,1685096474360,409.0,403.0
1753,1685096474360,506.0,461.0
1754,1685096474360,344.0,411.0
1755,1685096474392,371.0,387.0
1756,1685096474392,500.0,463.0
1757,1685096474392,326.0,420.0
1758,1685096474392,360.0,392.0
1759,1685096474426,385.0,432.0
1760,1685096474426,459.0,439.0
1761,1685096474426,413.0,468.0
1762,1685096474459,535.0,443.0
1763,1685096474459,467.0,478.0
1764,1685096474459,555.0,440.0
1765,1685096474459,456.0,459.0
1766,1685096474489,540.0,439.0
1767,1685096474489,451.0,429.0
1768,1685096474489,471.0,445.0
1769,1685096474521,330.0,377.0
1770,1685096474521,462.0,443.0
1771,1685096474521,389.0,437.0
1772,1685096474521,264.0,375.0
1773,1685096474558,421.0,416.0
1774,1685096474558,373.0,441.0
1775,1685096474558,380.0,404.0
1776,1685096474583,376.0,436.0
1777,1685096474583,507.0,453.0
1778,1685096474583,462.0,488.0
1779,1685096474583,543.0,452.0
1780,1685096474615,459.0,460.0
1781,1685096474615,564.0,454.0
1782,1685096474615,442.0,437.0
1783,1685096474615,480.0,428.0
1784,1685096474660,407.0,402.0
1785,1685096474660,489.0,458.0
1786,1685096474660,311.0,390.0
1787,1685096474692,401.0,406.0
1788,1685096474692,489.0,463.0
1789,1685096474692,300.0,402.0
1790,1685096474692,382.0,396.0
1791,1685096474726,412.0,453.0
1792,1685096474726,461.0,447.0
1793,1685096474726,422.0,464.0
1794,1685096474758,527.0,447.0
1795,1685096474758,473.0,483.0
1796,1685096474758,534.0,437.0
1797,1685096474758,438.0,456.0
1798,1685096474792,529.0,433.0
1799,1685096474792,434.0,424.0
1800,1685096474792,468.0,452.0
1801,1685096474821,346.0,378.0
1802,1685096474821,495.0,454.0
1803,1685096474821,379.0,425.0
1804,1685096474821,308.0,384.0
1805,1685096474859,464.0,426.0
1806,1685096474859,360.0,438.0
1807,1685096474859,388.0,409.0
1808,1685096474885,390.0,449.0
1809,1685096474885,499.0,448.0
1810,1685096474885,450.0,490.0
1811,1685096474885,526.0,440.0
1812,1685096474926,447.0,459.0
1813,1685096474926,551.0,442.0
1814,1685096474926,441.0,448.0
1815,1685096474926,525.0,444.0
1816,1685096474960,431.0,409.0
1817,1685096474960,484.0,446.0
1818,1685096474960,321.0,399.0
1819,1685096474991,432.0,421.0
1820,1685096474991,455.0,456.0
1821,1685096474991,271.0,387.0
1822,1685096474991,387.0,398.0
1823,1685096475027,393.0,451.0
1824,1685096475027,413.0,424.0
1825,1685096475027,382.0,447.0
1826,1685096475059,514.0,450.0
1827,1685096475059,471.0,491.0
1828,1685096475059,553.0,442.0
1829,1685096475059,455.0,461.0
1830,1685096475091,563.0,443.0
1831,1685096475091,456.0,435.0
1832,1685096475091,481.0,444.0
1833,1685096475122,375.0,386.0
1834,1685096475122,496.0,451.0
1835,1685096475122,345.0,415.0
1836,1685096475122,319.0,378.0
1837,1685096475154,476.0,444.0
1838,1685096475154,341.0,428.0
1839,1685096475154,351.0,389.0
1840,1685096475194,394.0,446.0
1841,1685096475194,498.0,453.0
1842,1685096475194,442.0,475.0
1843,1685096475194,550.0,457.0
1844,1685096475227,470.0,469.0
1845,1685096475227,551.0,437.0
1846,1685096475227,436.0,448.0
1847,1685096475227,504.0,431.0
1848,1685096475261,421.0,411.0
1849,1685096475261,466.0,440.0
1850,1685096475261,313.0,382.0
1851,1685096475293,449.0,424.0
1852,1685096475293,438.0,457.0
1853,1685096475293,272.0,376.0
1854,1685096475293,422.0,416.0
1855,1685096475328,397.0,442.0
1856,1685096475328,411.0,424.0
1857,1685096475328,395.0,446.0
1858,1685096475360,508.0,447.0
1859,1685096475360,465.0,472.0
1860,1685096475360,530.0,435.0
1861,1685096475360,438.0,458.0
1862,1685096475392,538.0,435.0
1863,1685096475392,426.0,427.0
1864,1685096475392,473.0,443.0
1865,1685096475423,393.0,398.0
1866,1685096475423,502.0,464.0
1867,1685096475423,338.0,403.0
1868,1685096475423,372.0,398.0
1869,1685096475459,507.0,460.0
1870,1685096475459,321.0,421.0
1871,1685096475459,368.0,392.0
1872,1685096475487,391.0,446.0
1873,1685096475487,457.0,444.0
1874,1685096475487,418.0,473.0
1875,1685096475487,532.0,451.0
1876,1685096475527,466.0,467.0
1877,1685096475527,548.0,441.0
1878,1685096475527,448.0,454.0
1879,1685096475527,538.0,444.0
1880,1685096475561,460.0,431.0
1881,1685096475561,481.0,452.0
1882,1685096475561,341.0,377.0
1883,1685096475593,476.0,440.0
1884,1685096475593,394.0,440.0
1885,1685096475593,264.0,368.0
1886,1685096475593,429.0,417.0
1887,1685096475628,367.0,435.0
1888,1685096475628,376.0,409.0
1889,1685096475628,380.0,443.0
1890,1685096475659,500.0,454.0
1891,1685096475659,462.0,478.0
1892,1685096475659,549.0,452.0
1893,1685096475659,470.0,465.0
1894,1685096475691,572.0,444.0
1895,1685096475691,455.0,445.0
1896,1685096475691,487.0,435.0
1897,1685096475727,409.0,412.0
1898,1685096475727,487.0,454.0
1899,1685096475727,304.0,391.0
1900,1685096475727,397.0,414.0
1901,1685096475760,481.0,453.0
1902,1685096475760,294.0,402.0
1903,1685096475760,373.0,400.0
1904,1685096475786,407.0,447.0
1905,1685096475786,451.0,446.0
1906,1685096475786,421.0,466.0
1907,1685096475786,533.0,451.0
1908,1685096475817,471.0,477.0
1909,1685096475817,544.0,444.0
1910,1685096475817,431.0,448.0
1911,1685096475817,529.0,438.0
1912,1685096475863,437.0,426.0
1913,1685096475863,468.0,447.0
1914,1685096475863,344.0,371.0
1915,1685096475895,494.0,460.0
1916,1685096475895,381.0,433.0
1917,1685096475895,300.0,378.0
1918,1685096475895,479.0,437.0
1919,1685096475929,370.0,441.0
1920,1685096475929,371.0,408.0
1921,1685096475929,384.0,445.0
1922,1685096475961,498.0,453.0
1923,1685096475961,453.0,479.0
1924,1685096475961,531.0,438.0
1925,1685096475961,447.0,466.0
1926,1685096475994,546.0,440.0
1927,1685096475994,438.0,450.0
1928,1685096475994,504.0,428.0
1929,1685096476028,421.0,408.0
1930,1685096476028,498.0,469.0
1931,1685096476028,326.0,381.0
1932,1685096476028,437.0,428.0
1933,1685096476056,470.0,464.0
1934,1685096476056,274.0,380.0
1935,1685096476056,385.0,394.0
1936,1685096476088,391.0,443.0
1937,1685096476088,414.0,424.0
1938,1685096476088,384.0,449.0
1939,1685096476088,502.0,439.0
1940,1685096476119,460.0,483.0
1941,1685096476119,554.0,457.0
1942,1685096476119,470.0,452.0
1943,1685096476119,565.0,453.0
1944,1685096476172,458.0,446.0
1945,1685096476172,485.0,440.0
1946,1685096476172,374.0,378.0
1947,1685096476186,480.0,440.0
1948,1685096476186,339.0,423.0
1949,1685096476186,313.0,380.0
1950,1685096476186,474.0,449.0
1951,1685096476230,337.0,440.0
1952,1685096476230,350.0,389.0
1953,1685096476230,384.0,443.0
1954,1685096476261,491.0,448.0
1955,1685096476261,449.0,480.0
1956,1685096476261,561.0,458.0
1957,1685096476261,470.0,469.0
1958,1685096476296,562.0,452.0
1959,1685096476296,443.0,448.0
1960,1685096476296,504.0,428.0
1961,1685096476329,432.0,419.0
1962,1685096476329,469.0,457.0
1963,1685096476329,307.0,374.0
1964,1685096476329,445.0,433.0
1965,1685096476356,423.0,447.0
1966,1685096476356,266.0,378.0
1967,1685096476356,421.0,399.0
1968,1685096476391,401.0,451.0
1969,1685096476391,405.0,427.0
1970,1685096476391,400.0,448.0
1971,1685096476391,510.0,457.0
1972,1685096476429,455.0,478.0
1973,1685096476429,537.0,444.0
1974,1685096476429,441.0,456.0
1975,1685096476429,536.0,439.0
1976,1685096476463,432.0,445.0
1977,1685096476463,475.0,435.0
1978,1685096476463,391.0,406.0
1979,1685096476495,499.0,451.0
1980,1685096476495,335.0,410.0
1981,1685096476495,374.0,396.0
1982,1685096476495,510.0,459.0
1983,1685096476529,319.0,415.0
1984,1685096476529,363.0,394.0
1985,1685096476529,408.0,455.0
1986,1685096476562,470.0,437.0
1987,1685096476562,417.0,461.0
1988,1685096476562,532.0,448.0
1989,1685096476562,453.0,471.0
1990,1685096476595,534.0,441.0
1991,1685096476595,446.0,454.0
1992,1685096476595,540.0,442.0
1993,1685096476627,451.0,428.0
1994,1685096476627,482.0,446.0
1995,1685096476627,332.0,380.0
1996,1685096476627,477.0,439.0
1997,1685096476663,400.0,441.0
1998,1685096476663,267.0,375.0
1999,1685096476663,447.0,417.0
2000,1685096476688,386.0,445.0
2001,1685096476688,362.0,397.0
2002,1685096476688,365.0,438.0
2003,1685096476688,499.0,448.0
2004,1685096476730,455.0,483.0
2005,1685096476730,544.0,450.0
2006,1685096476730,473.0,470.0
2007,1685096476730,565.0,450.0
2008,1685096476764,455.0,443.0
2009,1685096476764,496.0,432.0
2010,1685096476764,408.0,408.0
2011,1685096476796,493.0,454.0
2012,1685096476796,305.0,389.0
2013,1685096476796,394.0,408.0
2014,1685096476796,485.0,460.0
2015,1685096476830,299.0,414.0
2016,1685096476830,371.0,387.0
2017,1685096476830,402.0,439.0
2018,1685096476862,455.0,440.0
2019,1685096476862,411.0,465.0
2020,1685096476862,529.0,458.0
2021,1685096476862,471.0,469.0
2022,1685096476894,545.0,449.0
2023,1685096476894,450.0,460.0
2024,1685096476894,541.0,432.0
2025,1685096476926,431.0,423.0
2026,1685096476926,469.0,449.0
2027,1685096476926,338.0,368.0
2028,1685096476926,478.0,449.0
2029,1685096476957,359.0,421.0
2030,1685096476957,295.0,380.0
2031,1685096476957,467.0,432.0
2032,1685096476996,371.0,438.0
2033,1685096476996,372.0,416.0
2034,1685096476996,390.0,436.0
2035,1685096476996,508.0,456.0
2036,1685096477022,454.0,478.0
2037,1685096477022,534.0,449.0
2038,1685096477022,454.0,456.0
2039,1685096477022,544.0,444.0
2040,1685096477065,434.0,440.0
2041,1685096477065,500.0,440.0
2042,1685096477065,415.0,408.0
2043,1685096477096,481.0,456.0
2044,1685096477096,307.0,382.0
2045,1685096477096,440.0,433.0
2046,1685096477096,468.0,452.0
2047,1685096477132,274.0,391.0
2048,1685096477132,403.0,406.0
2049,1685096477132,395.0,440.0
2050,1685096477164,419.0,435.0
2051,1685096477164,401.0,455.0
2052,1685096477164,503.0,440.0
2053,1685096477164,462.0,482.0
2054,1685096477197,543.0,442.0
2055,1685096477197,458.0,451.0
2056,1685096477197,553.0,444.0
2057,1685096477228,450.0,437.0
2058,1685096477228,484.0,442.0
2059,1685096477228,380.0,390.0
2060,1685096477228,498.0,447.0
2061,1685096477261,355.0,418.0
2062,1685096477261,325.0,382.0
2063,1685096477261,495.0,457.0
2064,1685096477290,342.0,427.0
2065,1685096477290,341.0,394.0
2066,1685096477290,384.0,441.0
2067,1685096477290,485.0,447.0
2068,1685096477322,430.0,473.0
2069,1685096477322,554.0,460.0
2070,1685096477322,464.0,470.0
2071,1685096477322,563.0,451.0
2072,1685096477365,463.0,460.0
2073,1685096477365,522.0,433.0
2074,1685096477365,444.0,421.0
2075,1685096477397,475.0,448.0
2076,1685096477397,319.0,378.0
2077,1685096477397,453.0,431.0
2078,1685096477397,415.0,447.0
2079,1685096477432,268.0,378.0
2080,1685096477432,408.0,400.0
2081,1685096477432,390.0,443.0
2082,1685096477463,398.0,423.0
2083,1685096477463,387.0,444.0
2084,1685096477463,521.0,452.0
2085,1685096477463,465.0,475.0
2086,1685096477495,546.0,449.0
2087,1685096477495,457.0,458.0
2088,1685096477495,539.0,436.0
2089,1685096477527,440.0,443.0
2090,1685096477527,474.0,442.0
2091,1685096477527,391.0,393.0
2092,1685096477527,498.0,467.0
2093,1685096477558,330.0,406.0
2094,1685096477558,360.0,394.0
2095,1685096477558,511.0,470.0
2096,1685096477599,322.0,413.0
2097,1685096477599,356.0,399.0
2098,1685096477599,395.0,442.0
2099,1685096477599,479.0,453.0
2100,1685096477632,429.0,473.0
2101,1685096477632,532.0,441.0
2102,1685096477632,460.0,472.0
2103,1685096477632,534.0,434.0
2104,1685096477665,441.0,446.0
2105,1685096477665,524.0,442.0
2106,1685096477665,429.0,419.0
2107,1685096477699,469.0,451.0
2108,1685096477699,332.0,376.0
2109,1685096477699,472.0,441.0
2110,1685096477699,395.0,438.0
2111,1685096477733,273.0,376.0
2112,1685096477733,441.0,412.0
2113,1685096477733,379.0,447.0
2114,1685096477764,377.0,407.0
2115,1685096477764,374.0,437.0
2116,1685096477764,509.0,457.0
2117,1685096477764,456.0,474.0
2118,1685096477798,540.0,443.0
2119,1685096477798,465.0,469.0
2120,1685096477798,560.0,444.0
2121,1685096477828,453.0,449.0
2122,1685096477828,495.0,435.0
2123,1685096477828,403.0,398.0
2124,1685096477828,485.0,456.0
2125,1685096477860,314.0,390.0
2126,1685096477860,393.0,395.0
2127,1685096477860,482.0,462.0
2128,1685096477899,295.0,410.0
2129,1685096477899,364.0,389.0
2130,1685096477899,400.0,450.0
2131,1685096477899,445.0,432.0
2132,1685096477932,414.0,468.0
2133,1685096477932,520.0,448.0
2134,1685096477932,479.0,485.0
2135,1685096477932,550.0,443.0
2136,1685096477966,458.0,454.0
2137,1685096477966,548.0,434.0
2138,1685096477966,450.0,423.0
2139,1685096477998,473.0,443.0
2140,1685096477998,343.0,380.0
2141,1685096477998,476.0,443.0
2142,1685096477998,356.0,417.0
2143,1685096478034,299.0,390.0
2144,1685096478034,463.0,422.0
2145,1685096478034,360.0,446.0
2146,1685096478066,381.0,397.0
2147,1685096478066,386.0,449.0
2148,1685096478066,505.0,445.0
2149,1685096478066,464.0,496.0
2150,1685096478097,546.0,444.0
2151,1685096478097,453.0,465.0
2152,1685096478097,547.0,444.0
2153,1685096478129,440.0,443.0
2154,1685096478129,502.0,430.0
2155,1685096478129,423.0,424.0
2156,1685096478129,476.0,442.0
2157,1685096478160,314.0,387.0
2158,1685096478160,433.0,416.0
2159,1685096478160,457.0,454.0
2160,1685096478200,273.0,398.0
2161,1685096478200,388.0,375.0
2162,1685096478200,400.0,459.0
2163,1685096478200,432.0,436.0
2164,1685096478225,391.0,453.0
2165,1685096478225,502.0,448.0
2166,1685096478225,454.0,469.0
2167,1685096478225,541.0,437.0
2168,1685096478268,446.0,453.0
2169,1685096478268,553.0,451.0
2170,1685096478268,443.0,438.0
2171,1685096478300,482.0,444.0
2172,1685096478300,381.0,393.0
2173,1685096478300,493.0,465.0
2174,1685096478300,346.0,409.0
2175,1685096478334,333.0,384.0
2176,1685096478334,490.0,449.0
2177,1685096478334,342.0,432.0
2178,1685096478366,359.0,390.0
2179,1685096478366,389.0,453.0
2180,1685096478366,484.0,437.0
2181,1685096478366,440.0,474.0
2182,1685096478400,534.0,453.0
2183,1685096478400,460.0,475.0
2184,1685096478400,556.0,442.0
2185,1685096478431,441.0,445.0
2186,1685096478431,523.0,436.0
2187,1685096478431,432.0,415.0
2188,1685096478431,473.0,441.0
2189,1685096478462,327.0,383.0
2190,1685096478462,459.0,440.0
2191,1685096478462,420.0,446.0
2192,1685096478499,260.0,379.0
2193,1685096478499,412.0,399.0
2194,1685096478499,391.0,448.0
2195,1685096478499,384.0,411.0
2196,1685096478525,375.0,445.0
2197,1685096478525,502.0,452.0
2198,1685096478525,461.0,482.0
2199,1685096478525,547.0,447.0
2200,1685096478573,454.0,451.0
2201,1685096478573,543.0,448.0
2202,1685096478573,454.0,444.0
2203,1685096478590,482.0,437.0
2204,1685096478590,405.0,400.0
2205,1685096478590,487.0,448.0
2206,1685096478590,319.0,400.0
2207,1685096478641,373.0,400.0
2208,1685096478641,485.0,458.0
2209,1685096478641,310.0,414.0
2210,1685096478657,363.0,386.0
2211,1685096478657,410.0,451.0
2212,1685096478657,473.0,455.0
2213,1685096478657,437.0,469.0
2214,1685096478688,528.0,453.0
2215,1685096478688,467.0,479.0
2216,1685096478688,544.0,436.0
2217,1685096478722,445.0,467.0
2218,1685096478722,521.0,430.0
2219,1685096478722,440.0,427.0
2220,1685096478722,468.0,447.0
2221,1685096478767,333.0,377.0
2222,1685096478767,474.0,445.0
2223,1685096478767,388.0,435.0
2224,1685096478799,278.0,375.0
2225,1685096478799,437.0,415.0
2226,1685096478799,384.0,442.0
2227,1685096478799,382.0,408.0
2228,1685096478830,393.0,447.0
2229,1685096478830,509.0,463.0
2230,1685096478830,461.0,480.0
2231,1685096478830,541.0,443.0
2232,1685096478868,455.0,465.0
2233,1685096478868,538.0,439.0
2234,1685096478868,449.0,443.0
2235,1685096478900,493.0,438.0
2236,1685096478900,405.0,392.0
2237,1685096478900,493.0,469.0
2238,1685096478900,325.0,390.0
2239,1685096478935,410.0,417.0
2240,1685096478935,482.0,455.0
2241,1685096478935,293.0,400.0
2242,1685096478966,364.0,377.0
2243,1685096478966,399.0,448.0
2244,1685096478966,434.0,432.0
2245,1685096478966,397.0,444.0
2246,1685096478998,514.0,453.0
2247,1685096478998,465.0,475.0
2248,1685096478998,544.0,448.0
2249,1685096479029,462.0,464.0
2250,1685096479029,554.0,442.0
2251,1685096479029,467.0,441.0
2252,1685096479029,483.0,437.0
2253,1685096479068,357.0,393.0
2254,1685096479068,493.0,448.0
2255,1685096479068,361.0,420.0
2256,1685096479099,294.0,389.0
2257,1685096479099,451.0,429.0
2258,1685096479099,353.0,441.0
2259,1685096479099,346.0,396.0
2260,1685096479125,382.0,443.0
2261,1685096479125,499.0,451.0
2262,1685096479125,454.0,476.0
2263,1685096479125,549.0,453.0
2264,1685096479169,469.0,470.0
2265,1685096479169,558.0,439.0
2266,1685096479169,456.0,452.0
2267,1685096479200,503.0,433.0
2268,1685096479200,422.0,402.0
2269,1685096479200,471.0,447.0
2270,1685096479200,309.0,389.0
2271,1685096479239,428.0,424.0
2272,1685096479239,443.0,455.0
2273,1685096479239,281.0,390.0
2274,1685096479268,394.0,397.0
2275,1685096479268,396.0,443.0
2276,1685096479268,422.0,431.0
2277,1685096479268,401.0,455.0
2278,1685096479301,521.0,452.0
2279,1685096479301,475.0,478.0
2280,1685096479301,542.0,437.0
2281,1685096479333,451.0,450.0
2282,1685096479333,534.0,436.0
2283,1685096479333,437.0,428.0
2284,1685096479333,472.0,434.0
2285,1685096479364,368.0,388.0
2286,1685096479364,498.0,461.0
2287,1685096479364,349.0,414.0
2288,1685096479395,352.0,388.0
2289,1685096479395,493.0,462.0
2290,1685096479395,343.0,423.0
2291,1685096479395,357.0,390.0
2292,1685096479427,394.0,450.0
2293,1685096479427,492.0,449.0
2294,1685096479427,432.0,471.0
2295,1685096479427,530.0,452.0
2296,1685096479470,458.0,467.0
2297,1685096479470,540.0,440.0
2298,1685096479470,442.0,436.0
2299,1685096479502,519.0,441.0
2300,1685096479502,443.0,416.0
2301,1685096479502,481.0,450.0
2302,1685096479502,342.0,385.0
2303,1685096479537,469.0,437.0
2304,1685096479537,411.0,443.0
2305,1685096479537,267.0,368.0
2306,1685096479569,404.0,410.0
2307,1685096479569,380.0,437.0
2308,1685096479569,387.0,416.0
2309,1685096479569,381.0,445.0
2310,1685096479600,507.0,459.0
2311,1685096479600,459.0,475.0
2312,1685096479600,543.0,442.0
2313,1685096479632,472.0,476.0
2314,1685096479632,562.0,446.0
2315,1685096479632,459.0,444.0
2316,1685096479632,495.0,432.0
2317,1685096479663,404.0,401.0
2318,1685096479663,492.0,457.0
2319,1685096479663,317.0,397.0
2320,1685096479694,372.0,398.0
2321,1685096479694,485.0,459.0
2322,1685096479694,302.0,415.0
2323,1685096479694,354.0,388.0
2324,1685096479726,398.0,446.0
2325,1685096479726,463.0,446.0
2326,1685096479726,423.0,475.0
2327,1685096479726,544.0,452.0
2328,1685096479770,476.0,478.0
2329,1685096479770,547.0,444.0
2330,1685096479770,455.0,450.0
2331,1685096479802,529.0,435.0
2332,1685096479802,447.0,430.0
2333,1685096479802,464.0,441.0
2334,1685096479802,330.0,376.0
2335,1685096479837,476.0,448.0
2336,1685096479837,381.0,435.0
2337,1685096479837,278.0,382.0
2338,1685096479868,447.0,426.0
2339,1685096479868,379.0,439.0
2340,1685096479868,375.0,406.0
2341,1685096479868,400.0,445.0
2342,1685096479903,520.0,461.0
2343,1685096479903,469.0,481.0
2344,1685096479903,538.0,447.0
2345,1685096479937,462.0,463.0
2346,1685096479937,543.0,434.0
2347,1685096479937,440.0,448.0
2348,1685096479937,480.0,428.0
2349,1685096479963,403.0,394.0
2350,1685096479963,499.0,469.0
2351,1685096479963,319.0,396.0
2352,1685096479994,415.0,417.0
2353,1685096479994,475.0,466.0
2354,1685096479994,296.0,405.0
2355,1685096479994,384.0,401.0
2356,1685096480026,404.0,444.0
2357,1685096480026,443.0,442.0
2358,1685096480026,392.0,447.0
2359,1685096480026,503.0,446.0
2360,1685096480072,464.0,469.0
2361,1685096480072,532.0,434.0
2362,1685096480072,451.0,463.0
2363,1685096480103,540.0,439.0
2364,1685096480103,451.0,444.0
2365,1685096480103,482.0,438.0
2366,1685096480103,371.0,395.0
2367,1685096480137,496.0,452.0
2368,1685096480137,359.0,420.0
2369,1685096480137,319.0,384.0
2370,1685096480169,467.0,430.0
2371,1685096480169,347.0,425.0
2372,1685096480169,350.0,401.0
2373,1685096480169,373.0,443.0
2374,1685096480201,482.0,460.0
2375,1685096480201,441.0,473.0
2376,1685096480201,530.0,457.0
2377,1685096480232,468.0,474.0
2378,1685096480232,558.0,453.0
2379,1685096480232,468.0,449.0
2380,1685096480232,522.0,433.0
2381,1685096480264,444.0,411.0
2382,1685096480264,482.0,442.0
2383,1685096480264,324.0,388.0
2384,1685096480305,438.0,424.0
2385,1685096480305,416.0,438.0
2386,1685096480305,277.0,391.0
2387,1685096480305,379.0,392.0
2388,1685096480337,385.0,430.0
2389,1685096480337,405.0,428.0
2390,1685096480337,405.0,461.0
2391,1685096480337,517.0,451.0
2392,1685096480372,473.0,487.0
2393,1685096480372,550.0,448.0
2394,1685096480372,462.0,464.0
2395,1685096480403,544.0,438.0
2396,1685096480403,457.0,435.0
2397,1685096480403,475.0,431.0
2398,1685096480403,383.0,391.0
2399,1685096480438,485.0,450.0
2400,1685096480438,321.0,406.0
2401,1685096480438,357.0,384.0
2402,1685096480469,488.0,458.0
2403,1685096480469,326.0,426.0
2404,1685096480469,359.0,394.0
2405,1685096480469,407.0,441.0
2406,1685096480501,494.0,456.0
2407,1685096480501,433.0,468.0
2408,1685096480501,534.0,458.0
2409,1685096480534,457.0,471.0
2410,1685096480534,527.0,433.0
2411,1685096480534,426.0,432.0
2412,1685096480534,513.0,434.0
2413,1685096480566,444.0,422.0
2414,1685096480566,472.0,454.0
2415,1685096480566,333.0,385.0
2416,1685096480604,490.0,441.0
2417,1685096480604,423.0,448.0
2418,1685096480604,284.0,376.0
2419,1685096480604,420.0,404.0
2420,1685096480628,395.0,446.0
2421,1685096480628,385.0,413.0
2422,1685096480628,373.0,439.0
2423,1685096480628,499.0,447.0
2424,1685096480672,450.0,477.0
2425,1685096480672,521.0,437.0
2426,1685096480672,447.0,462.0
2427,1685096480703,551.0,441.0
2428,1685096480703,465.0,452.0
2429,1685096480703,490.0,441.0
2430,1685096480703,418.0,402.0
2431,1685096480740,516.0,477.0
2432,1685096480740,327.0,398.0
2433,1685096480740,389.0,401.0
2434,1685096480771,482.0,454.0
2435,1685096480771,301.0,410.0
2436,1685096480771,351.0,385.0
2437,1685096480771,386.0,445.0
2438,1685096480805,445.0,435.0
2439,1685096480805,397.0,462.0
2440,1685096480805,523.0,446.0
2441,1685096480838,472.0,479.0
2442,1685096480838,553.0,445.0
2443,1685096480838,469.0,466.0
2444,1685096480838,548.0,439.0
2445,1685096480866,468.0,440.0
2446,1685096480866,473.0,440.0
2447,1685096480866,338.0,382.0
2448,1685096480899,476.0,451.0
2449,1685096480899,367.0,430.0
2450,1685096480899,288.0,377.0
2451,1685096480899,442.0,420.0
2452,1685096480930,370.0,435.0
2453,1685096480930,365.0,402.0
2454,1685096480930,381.0,436.0
2455,1685096480930,517.0,470.0
2456,1685096480972,467.0,480.0
2457,1685096480972,534.0,441.0
2458,1685096480972,462.0,461.0
2459,1685096481005,542.0,444.0
2460,1685096481005,438.0,447.0
2461,1685096481005,482.0,427.0
2462,1685096481005,411.0,416.0
2463,1685096481040,483.0,463.0
2464,1685096481040,314.0,389.0
2465,1685096481040,432.0,424.0
2466,1685096481073,474.0,451.0
2467,1685096481073,295.0,405.0
2468,1685096481073,385.0,386.0
2469,1685096481073,405.0,440.0
2470,1685096481102,443.0,442.0
2471,1685096481102,414.0,457.0
2472,1685096481102,507.0,447.0
2473,1685096481139,459.0,468.0
2474,1685096481139,524.0,444.0
2475,1685096481139,443.0,453.0
2476,1685096481139,533.0,445.0
2477,1685096481173,454.0,435.0
2478,1685096481173,477.0,451.0
2479,1685096481173,371.0,389.0
2480,1685096481198,511.0,454.0
2481,1685096481198,362.0,419.0
2482,1685096481198,330.0,382.0
2483,1685096481198,471.0,431.0
2484,1685096481236,345.0,425.0
2485,1685096481236,360.0,388.0
2486,1685096481236,382.0,431.0
2487,1685096481236,480.0,452.0
2488,1685096481274,434.0,471.0
2489,1685096481274,528.0,444.0
2490,1685096481274,443.0,461.0
2491,1685096481305,558.0,450.0
2492,1685096481305,465.0,451.0
2493,1685096481305,518.0,446.0
2494,1685096481305,444.0,423.0
2495,1685096481341,495.0,444.0
2496,1685096481341,317.0,387.0
2497,1685096481341,448.0,429.0
2498,1685096481373,446.0,450.0
2499,1685096481373,276.0,384.0
2500,1685096481373,391.0,390.0
2501,1685096481373,391.0,438.0
2502,1685096481406,395.0,416.0
2503,1685096481406,371.0,452.0
2504,1685096481406,505.0,447.0
2505,1685096481435,467.0,478.0
2506,1685096481435,545.0,443.0
2507,1685096481435,463.0,472.0
2508,1685096481435,554.0,441.0
2509,1685096481466,469.0,450.0
2510,1685096481466,482.0,430.0
2511,1685096481466,386.0,404.0
2512,1685096481497,508.0,461.0
2513,1685096481497,334.0,407.0
2514,1685096481497,357.0,390.0
2515,1685096481497,485.0,452.0
2516,1685096481534,332.0,424.0
2517,1685096481534,358.0,386.0
2518,1685096481534,397.0,441.0
2519,1685096481534,485.0,453.0
2520,1685096481587,427.0,464.0
2521,1685096481587,539.0,451.0
2522,1685096481587,466.0,472.0
2523,1685096481607,535.0,435.0
2524,1685096481607,454.0,456.0
2525,1685096481607,515.0,436.0
2526,1685096481607,438.0,420.0
2527,1685096481641,480.0,458.0
2528,1685096481641,327.0,379.0
2529,1685096481641,466.0,440.0
2530,1685096481673,414.0,447.0
2531,1685096481673,278.0,372.0
2532,1685096481673,425.0,407.0
2533,1685096481673,388.0,440.0
2534,1685096481705,387.0,414.0
2535,1685096481705,377.0,438.0
2536,1685096481705,513.0,459.0
2537,1685096481737,459.0,468.0
2538,1685096481737,530.0,438.0
2539,1685096481737,450.0,468.0
2540,1685096481737,541.0,446.0
2541,1685096481773,448.0,441.0
2542,1685096481773,480.0,436.0
2543,1685096481773,406.0,401.0
2544,1685096481801,501.0,477.0
2545,1685096481801,330.0,400.0
2546,1685096481801,398.0,405.0
2547,1685096481801,490.0,460.0
2548,1685096481831,312.0,399.0
2549,1685096481831,362.0,388.0
2550,1685096481831,387.0,434.0
2551,1685096481831,454.0,442.0
2552,1685096481875,407.0,458.0
2553,1685096481875,513.0,458.0
2554,1685096481875,473.0,475.0
2555,1685096481907,537.0,441.0
2556,1685096481907,459.0,457.0
2557,1685096481907,542.0,443.0
2558,1685096481907,468.0,446.0
2559,1685096481942,484.0,457.0
2560,1685096481942,345.0,383.0
2561,1685096481942,486.0,448.0
2562,1685096481973,373.0,414.0
2563,1685096481973,290.0,376.0
2564,1685096481973,431.0,412.0
2565,1685096481973,365.0,427.0
2566,1685096482004,374.0,412.0
2567,1685096482004,374.0,435.0
2568,1685096482004,504.0,450.0
2569,1685096482036,444.0,469.0
2570,1685096482036,551.0,464.0
2571,1685096482036,469.0,470.0
2572,1685096482036,554.0,427.0
2573,1685096482067,481.0,449.0
2574,1685096482067,499.0,441.0
2575,1685096482067,423.0,403.0
2576,1685096482099,504.0,471.0
2577,1685096482099,279.0,388.0
2578,1685096482099,437.0,443.0
2579,1685096482099,481.0,434.0
2580,1685096482130,287.0,430.0
2581,1685096482130,291.0,402.0
2582,1685096482130,180.0,382.0
2583,1685096482130,350.0,468.0
2584,1685096482177,155.0,406.0
2585,1685096482177,735.0,467.0
2586,1685096482177,192.0,435.0
2587,1685096482207,550.0,448.0
2588,1685096482207,441.0,496.0
2589,1685096482207,638.0,437.0
2590,1685096482207,449.0,393.0
2591,1685096482242,507.0,473.0
2592,1685096482242,377.0,374.0
2593,1685096482242,596.0,442.0
2594,1685096482274,559.0,444.0
2595,1685096482274,237.0,413.0
2596,1685096482274,392.0,413.0
2597,1685096482274,284.0,412.0
2598,1685096482305,284.0,421.0
2599,1685096482305,395.0,453.0
2600,1685096482305,510.0,430.0
2601,1685096482336,392.0,507.0
2602,1685096482336,493.0,450.0
2603,1685096482336,472.0,452.0
2604,1685096482336,576.0,434.0
2605,1685096482375,559.0,443.0
2606,1685096482375,504.0,432.0
2607,1685096482375,229.0,415.0
2608,1685096482408,427.0,467.0
2609,1685096482408,328.0,386.0
2610,1685096482408,468.0,428.0
2611,1685096482408,437.0,448.0
2612,1685096482442,277.0,398.0
2613,1685096482442,399.0,387.0
2614,1685096482442,398.0,455.0
2615,1685096482442,404.0,408.0
2616,1685096482476,379.0,421.0
2617,1685096482476,512.0,482.0
2618,1685096482476,466.0,467.0
2619,1685096482508,543.0,441.0
2620,1685096482508,474.0,465.0
2621,1685096482508,571.0,451.0
2622,1685096482508,461.0,453.0
2623,1685096482542,487.0,440.0
2624,1685096482542,424.0,422.0
2625,1685096482542,494.0,441.0
2626,1685096482574,321.0,409.0
2627,1685096482574,348.0,394.0
2628,1685096482574,485.0,449.0
2629,1685096482574,329.0,422.0
2630,1685096482607,353.0,380.0
2631,1685096482607,392.0,439.0
2632,1685096482607,485.0,451.0
2633,1685096482639,422.0,463.0
2634,1685096482639,537.0,444.0
2635,1685096482639,474.0,455.0
2636,1685096482639,554.0,444.0
2637,1685096482675,447.0,451.0
2638,1685096482675,521.0,430.0
2639,1685096482675,455.0,439.0
2640,1685096482704,471.0,444.0
2641,1685096482704,331.0,390.0
2642,1685096482704,462.0,422.0
2643,1685096482704,404.0,445.0
2644,1685096482735,277.0,373.0
2645,1685096482735,416.0,399.0
2646,1685096482735,378.0,442.0
2647,1685096482735,395.0,413.0
2648,1685096482776,375.0,439.0
2649,1685096482776,506.0,450.0
2650,1685096482776,461.0,472.0
2651,1685096482808,531.0,447.0
2652,1685096482808,454.0,468.0
2653,1685096482808,545.0,418.0
2654,1685096482808,448.0,461.0
2655,1685096482843,481.0,434.0
2656,1685096482843,402.0,410.0
2657,1685096482843,497.0,474.0
2658,1685096482875,325.0,408.0
2659,1685096482875,389.0,402.0
2660,1685096482875,493.0,452.0
2661,1685096482875,308.0,407.0
2662,1685096482909,370.0,399.0
2663,1685096482909,397.0,446.0
2664,1685096482909,469.0,430.0
2665,1685096482939,408.0,461.0
2666,1685096482939,530.0,448.0
2667,1685096482939,472.0,481.0
2668,1685096482939,540.0,432.0
2669,1685096482970,444.0,464.0
2670,1685096482970,529.0,439.0
2671,1685096482970,447.0,445.0
2672,1685096483001,477.0,440.0
2673,1685096483001,337.0,387.0
2674,1685096483001,490.0,452.0
2675,1685096483001,384.0,428.0
2676,1685096483033,291.0,379.0
2677,1685096483033,440.0,413.0
2678,1685096483033,370.0,440.0
2679,1685096483033,369.0,397.0
2680,1685096483078,370.0,427.0
2681,1685096483078,490.0,446.0
2682,1685096483078,449.0,479.0
2683,1685096483110,528.0,446.0
2684,1685096483110,457.0,470.0
2685,1685096483110,554.0,440.0
2686,1685096483110,457.0,458.0
2687,1685096483144,498.0,440.0
2688,1685096483144,414.0,393.0
2689,1685096483144,501.0,475.0
2690,1685096483175,318.0,399.0
2691,1685096483175,407.0,419.0
2692,1685096483175,460.0,445.0
2693,1685096483175,295.0,405.0
2694,1685096483207,368.0,383.0
2695,1685096483207,394.0,440.0
2696,1685096483207,440.0,436.0
2697,1685096483239,382.0,447.0
2698,1685096483239,526.0,455.0
2699,1685096483239,479.0,455.0
2700,1685096483239,551.0,454.0
2701,1685096483272,469.0,462.0
2702,1685096483272,548.0,445.0
2703,1685096483272,458.0,436.0
2704,1685096483301,477.0,450.0
2705,1685096483301,355.0,380.0
2706,1685096483301,480.0,453.0
2707,1685096483301,348.0,422.0
2708,1685096483333,313.0,389.0
2709,1685096483333,462.0,426.0
2710,1685096483333,354.0,421.0
2711,1685096483333,366.0,401.0
2712,1685096483379,383.0,437.0
2713,1685096483379,517.0,463.0
2714,1685096483379,458.0,489.0
2715,1685096483410,534.0,432.0
2716,1685096483410,474.0,472.0
2717,1685096483410,545.0,437.0
2718,1685096483410,435.0,445.0
2719,1685096483444,497.0,435.0
2720,1685096483444,418.0,412.0
2721,1685096483444,477.0,448.0
2722,1685096483477,313.0,388.0
2723,1685096483477,434.0,427.0
2724,1685096483477,448.0,456.0
2725,1685096483477,289.0,388.0
2726,1685096483510,401.0,401.0
2727,1685096483510,402.0,441.0
2728,1685096483510,427.0,427.0
2729,1685096483543,396.0,455.0
2730,1685096483543,519.0,449.0
2731,1685096483543,456.0,473.0
2732,1685096483543,541.0,446.0
2733,1685096483577,446.0,459.0
2734,1685096483577,535.0,433.0
2735,1685096483577,449.0,449.0
2736,1685096483610,473.0,432.0
2737,1685096483610,383.0,404.0
2738,1685096483610,503.0,462.0
2739,1685096483610,351.0,416.0
2740,1685096483643,355.0,389.0
2741,1685096483645,483.0,444.0
2742,1685096483645,320.0,388.0
2743,1685096483645,375.0,413.0
2744,1685096483679,390.0,428.0
2745,1685096483679,469.0,459.0
2746,1685096483679,415.0,476.0
2747,1685096483711,539.0,458.0
2748,1685096483711,466.0,469.0
2749,1685096483711,554.0,447.0
2750,1685096483711,466.0,449.0
2751,1685096483745,531.0,445.0
2752,1685096483745,461.0,421.0
2753,1685096483745,487.0,449.0
2754,1685096483778,313.0,372.0
2755,1685096483778,459.0,437.0
2756,1685096483778,402.0,446.0
2757,1685096483778,255.0,369.0
2758,1685096483808,403.0,406.0
2759,1685096483808,372.0,441.0
2760,1685096483808,394.0,406.0
2761,1685096483840,406.0,450.0
2762,1685096483840,523.0,461.0
2763,1685096483840,462.0,477.0
2764,1685096483840,550.0,465.0
2765,1685096483877,466.0,465.0
2766,1685096483877,547.0,441.0
2767,1685096483877,460.0,442.0
2768,1685096483904,477.0,439.0
2769,1685096483904,388.0,391.0
2770,1685096483904,484.0,460.0
2771,1685096483904,317.0,408.0
2772,1685096483937,383.0,398.0
2773,1685096483937,492.0,457.0
2774,1685096483937,319.0,413.0
2775,1685096483937,373.0,387.0
2776,1685096483979,403.0,446.0
2777,1685096483979,487.0,460.0
2778,1685096483979,421.0,470.0
2779,1685096484011,537.0,449.0
2780,1685096484011,475.0,482.0
2781,1685096484011,528.0,434.0
2782,1685096484011,433.0,456.0
2783,1685096484045,518.0,440.0
2784,1685096484045,427.0,426.0
2785,1685096484045,460.0,458.0
2786,1685096484076,327.0,374.0
2787,1685096484076,483.0,450.0
2788,1685096484076,399.0,435.0
2789,1685096484076,294.0,370.0
2790,1685096484108,451.0,424.0
2791,1685096484108,381.0,439.0
2792,1685096484108,378.0,395.0
2793,1685096484145,381.0,436.0
2794,1685096484145,498.0,440.0
2795,1685096484145,445.0,479.0
2796,1685096484145,519.0,440.0
2797,1685096484171,454.0,468.0
2798,1685096484171,548.0,438.0
2799,1685096484171,439.0,444.0
2800,1685096484208,491.0,435.0
2801,1685096484208,428.0,422.0
2802,1685096484208,506.0,457.0
2803,1685096484208,323.0,402.0
2804,1685096484234,413.0,407.0
2805,1685096484234,472.0,457.0
2806,1685096484234,295.0,401.0
2807,1685096484234,364.0,389.0
2808,1685096484280,382.0,428.0
2809,1685096484280,426.0,439.0
2810,1685096484280,406.0,462.0
2811,1685096484311,516.0,448.0
2812,1685096484311,473.0,486.0
2813,1685096484311,556.0,444.0
2814,1685096484311,465.0,460.0
2815,1685096484347,559.0,443.0
2816,1685096484347,467.0,427.0
2817,1685096484347,484.0,441.0
2818,1685096484378,348.0,390.0
2819,1685096484378,489.0,452.0
2820,1685096484378,353.0,417.0
2821,1685096484378,299.0,378.0
2822,1685096484412,460.0,432.0
2823,1685096484413,342.0,406.0
2824,1685096484413,355.0,406.0
2825,1685096484444,387.0,439.0
2826,1685096484444,505.0,455.0
2827,1685096484444,457.0,482.0
2828,1685096484444,541.0,465.0
2829,1685096484480,466.0,467.0
2830,1685096484480,559.0,441.0
2831,1685096484480,442.0,446.0
2832,1685096484512,498.0,434.0
2833,1685096484512,425.0,418.0
2834,1685096484512,476.0,444.0
2835,1685096484512,307.0,382.0
2836,1685096484540,423.0,419.0
2837,1685096484540,448.0,458.0
2838,1685096484540,276.0,385.0
2839,1685096484540,390.0,397.0
2840,1685096484580,402.0,453.0
2841,1685096484580,423.0,428.0
2842,1685096484580,395.0,449.0
2843,1685096484612,519.0,455.0
2844,1685096484612,467.0,475.0
2845,1685096484612,535.0,439.0
2846,1685096484612,440.0,454.0
2847,1685096484647,534.0,433.0
2848,1685096484647,436.0,449.0
2849,1685096484647,475.0,422.0
2850,1685096484679,376.0,397.0
2851,1685096484679,508.0,461.0
2852,1685096484679,359.0,420.0
2853,1685096484679,350.0,393.0
2854,1685096484711,498.0,455.0
2855,1685096484711,346.0,430.0
2856,1685096484711,364.0,396.0
2857,1685096484742,387.0,446.0
2858,1685096484742,482.0,442.0
2859,1685096484742,420.0,478.0
2860,1685096484742,529.0,443.0
2861,1685096484775,460.0,473.0
2862,1685096484775,537.0,433.0
2863,1685096484775,444.0,455.0
2864,1685096484807,523.0,434.0
2865,1685096484807,438.0,410.0
2866,1685096484807,484.0,456.0
2867,1685096484807,331.0,388.0
2868,1685096484876,469.0,440.0
2869,1685096484876,427.0,449.0
2870,1685096484876,268.0,378.0
2871,1685096484876,408.0,401.0
2872,1685096484876,373.0,434.0
2873,1685096484876,373.0,411.0
2874,1685096484876,372.0,441.0
2875,1685096484900,507.0,450.0
2876,1685096484900,459.0,491.0
2877,1685096484900,544.0,440.0
2878,1685096484900,468.0,477.0
2879,1685096484948,570.0,452.0
2880,1685096484948,464.0,452.0
2881,1685096484948,489.0,430.0
2882,1685096484980,408.0,402.0
2883,1685096484980,495.0,460.0
2884,1685096484980,317.0,398.0
2885,1685096484980,358.0,395.0
2886,1685096485011,476.0,447.0
2887,1685096485011,309.0,414.0
2888,1685096485011,356.0,394.0
2889,1685096485043,391.0,437.0
2890,1685096485043,469.0,447.0
2891,1685096485043,431.0,469.0
2892,1685096485043,549.0,455.0
2893,1685096485075,482.0,481.0
2894,1685096485075,556.0,446.0
2895,1685096485075,451.0,446.0
2896,1685096485107,525.0,443.0
2897,1685096485107,433.0,425.0
2898,1685096485107,466.0,449.0
2899,1685096485107,319.0,374.0
2900,1685096485140,462.0,447.0
2901,1685096485140,393.0,437.0
2902,1685096485140,279.0,377.0
2903,1685096485140,447.0,413.0
2904,1685096485181,377.0,447.0
2905,1685096485181,394.0,411.0
2906,1685096485181,388.0,451.0
2907,1685096485214,529.0,450.0
2908,1685096485214,458.0,479.0
2909,1685096485214,527.0,431.0
2910,1685096485214,453.0,471.0
2911,1685096485249,536.0,427.0
2912,1685096485249,431.0,454.0
2913,1685096485249,483.0,428.0
2914,1685096485280,411.0,407.0
2915,1685096485280,506.0,462.0
2916,1685096485280,331.0,395.0
2917,1685096485280,409.0,394.0
2918,1685096485312,499.0,472.0
2919,1685096485312,311.0,398.0
2920,1685096485312,367.0,390.0
2921,1685096485348,397.0,445.0
2922,1685096485348,440.0,443.0
2923,1685096485348,388.0,458.0
2924,1685096485348,517.0,449.0
2925,1685096485381,460.0,472.0
2926,1685096485381,543.0,441.0
2927,1685096485381,455.0,467.0
2928,1685096485408,540.0,437.0
2929,1685096485408,465.0,441.0
2930,1685096485408,480.0,446.0
2931,1685096485408,356.0,384.0
2932,1685096485447,503.0,456.0
2933,1685096485447,369.0,425.0
2934,1685096485447,292.0,377.0
2935,1685096485447,447.0,426.0
2936,1685096485482,358.0,437.0
2937,1685096485482,352.0,400.0
2938,1685096485482,371.0,429.0
2939,1685096485515,501.0,434.0
2940,1685096485515,448.0,480.0
2941,1685096485515,552.0,457.0
2942,1685096485515,472.0,475.0
2943,1685096485558,563.0,448.0
2944,1685096485558,451.0,446.0
2945,1685096485558,506.0,433.0
2946,1685096485581,420.0,406.0
2947,1685096485581,482.0,449.0
2948,1685096485581,305.0,365.0
2949,1685096485581,425.0,423.0
2950,1685096485605,454.0,456.0
2951,1685096485605,277.0,394.0
2952,1685096485605,377.0,388.0
2953,1685096485638,407.0,451.0
2954,1685096485638,427.0,432.0
2955,1685096485638,396.0,461.0
2956,1685096485638,520.0,450.0
2957,1685096485681,467.0,467.0
2958,1685096485681,536.0,457.0
2959,1685096485681,436.0,442.0
2960,1685096485716,547.0,445.0
2961,1685096485716,444.0,437.0
2962,1685096485716,468.0,433.0
2963,1685096485716,373.0,383.0
2964,1685096485747,502.0,462.0
2965,1685096485747,348.0,405.0
2966,1685096485747,330.0,383.0
2967,1685096485747,487.0,438.0
2968,1685096485782,342.0,422.0
2969,1685096485782,361.0,394.0
2970,1685096485782,385.0,443.0
2971,1685096485813,502.0,455.0
2972,1685096485813,433.0,468.0
2973,1685096485813,545.0,456.0
2974,1685096485813,467.0,469.0
2975,1685096485857,545.0,451.0
2976,1685096485857,439.0,446.0
2977,1685096485857,513.0,440.0
2978,1685096485872,437.0,418.0
2979,1685096485872,474.0,454.0
2980,1685096485872,322.0,382.0
2981,1685096485872,449.0,423.0
2982,1685096485904,431.0,458.0
2983,1685096485904,268.0,367.0
2984,1685096485904,407.0,401.0
2985,1685096485936,382.0,448.0
2986,1685096485936,400.0,416.0
2987,1685096485936,387.0,454.0
2988,1685096485936,505.0,444.0
2989,1685096485982,450.0,475.0
2990,1685096485982,541.0,446.0
2991,1685096485982,458.0,464.0
2992,1685096486015,553.0,441.0
2993,1685096486015,456.0,430.0
2994,1685096486015,483.0,438.0
2995,1685096486015,393.0,395.0
2996,1685096486049,501.0,454.0
2997,1685096486049,327.0,408.0
2998,1685096486049,358.0,387.0
2999,1685096486049,494.0,457.0
3000,1685096486083,303.0,406.0
3001,1685096486083,350.0,394.0
3002,1685096486083,384.0,436.0
3003,1685096486116,463.0,455.0
3004,1685096486116,408.0,466.0
3005,1685096486116,548.0,454.0
3006,1685096486116,469.0,478.0
3007,1685096486150,546.0,443.0
3008,1685096486150,454.0,436.0
3009,1685096486150,532.0,443.0
3010,1685096486182,449.0,424.0
3011,1685096486182,478.0,450.0
3012,1685096486182,333.0,379.0
3013,1685096486182,481.0,438.0
3014,1685096486215,402.0,446.0
3015,1685096486215,265.0,372.0
3016,1685096486215,427.0,409.0
3017,1685096486246,379.0,447.0
3018,1685096486246,375.0,404.0
3019,1685096486246,386.0,453.0
3020,1685096486246,508.0,448.0
3021,1685096486283,457.0,477.0
3022,1685096486283,538.0,444.0
3023,1685096486283,465.0,467.0
3024,1685096486316,554.0,448.0
3025,1685096486316,447.0,436.0
3026,1685096486316,489.0,439.0
3027,1685096486316,400.0,396.0
3028,1685096486350,493.0,457.0
3029,1685096486350,315.0,398.0
3030,1685096486350,394.0,403.0
3031,1685096486350,490.0,470.0
3032,1685096486391,299.0,407.0
3033,1685096486391,368.0,387.0
3034,1685096486391,404.0,444.0
3035,1685096486406,457.0,433.0
3036,1685096486406,410.0,467.0
3037,1685096486406,532.0,440.0
3038,1685096486406,469.0,477.0
3039,1685096486455,541.0,436.0
3040,1685096486455,443.0,454.0
3041,1685096486455,528.0,427.0
3042,1685096486481,441.0,435.0
3043,1685096486481,466.0,444.0
3044,1685096486481,345.0,379.0
3045,1685096486481,493.0,449.0
3046,1685096486517,372.0,430.0
3047,1685096486517,305.0,378.0
3048,1685096486517,455.0,422.0
3049,1685096486550,370.0,438.0
3050,1685096486550,367.0,398.0
3051,1685096486550,375.0,442.0
3052,1685096486550,505.0,453.0
3053,1685096486584,450.0,491.0
3054,1685096486584,534.0,441.0
3055,1685096486584,469.0,465.0
3056,1685096486617,552.0,444.0
3057,1685096486617,449.0,449.0
3058,1685096486617,510.0,437.0
3059,1685096486617,425.0,407.0
3060,1685096486650,496.0,453.0
3061,1685096486650,320.0,386.0
3062,1685096486650,429.0,417.0
3063,1685096486650,459.0,466.0
3064,1685096486686,279.0,395.0
3065,1685096486686,383.0,389.0
3066,1685096486686,389.0,441.0
3067,1685096486717,424.0,429.0
3068,1685096486717,408.0,461.0
3069,1685096486717,517.0,448.0
3070,1685096486717,465.0,472.0
3071,1685096486751,542.0,445.0
3072,1685096486751,454.0,455.0
3073,1685096486751,554.0,448.0
3074,1685096486782,454.0,435.0
3075,1685096486782,482.0,447.0
3076,1685096486782,369.0,390.0
3077,1685096486782,488.0,448.0
3078,1685096486814,344.0,410.0
3079,1685096486814,315.0,389.0
3080,1685096486814,471.0,435.0
3081,1685096486851,341.0,424.0
3082,1685096486851,355.0,400.0
3083,1685096486851,396.0,438.0
3084,1685096486851,501.0,463.0
3085,1685096486885,441.0,473.0
3086,1685096486885,553.0,454.0
3087,1685096486885,467.0,464.0
3088,1685096486909,550.0,441.0
3089,1685096486909,449.0,450.0
3090,1685096486909,508.0,440.0
3091,1685096486909,430.0,411.0
3092,1685096486950,476.0,460.0
3093,1685096486950,311.0,378.0
3094,1685096486950,454.0,434.0
3095,1685096486950,446.0,463.0
3096,1685096486986,273.0,378.0
3097,1685096486986,402.0,401.0
3098,1685096486986,397.0,444.0
3099,1685096487019,408.0,413.0
3100,1685096487019,389.0,452.0
3101,1685096487019,509.0,442.0
3102,1685096487019,459.0,479.0
3103,1685096487055,539.0,441.0
3104,1685096487055,444.0,458.0
3105,1685096487055,545.0,437.0
3106,1685096487085,448.0,439.0
3107,1685096487085,480.0,432.0
3108,1685096487085,384.0,397.0
3109,1685096487085,493.0,455.0
3110,1685096487118,335.0,411.0
3111,1685096487118,356.0,386.0
3112,1685096487118,496.0,453.0
3113,1685096487150,333.0,428.0
3114,1685096487150,346.0,388.0
3115,1685096487150,393.0,452.0
3116,1685096487150,472.0,425.0
3117,1685096487181,438.0,485.0
3118,1685096487181,545.0,453.0
3119,1685096487181,467.0,475.0
3120,1685096487213,542.0,436.0
3121,1685096487213,444.0,462.0
3122,1685096487213,522.0,433.0
3123,1685096487213,454.0,427.0
3124,1685096487245,475.0,451.0
3125,1685096487245,335.0,390.0
3126,1685096487245,473.0,438.0
3127,1685096487245,404.0,441.0
3128,1685096487286,271.0,381.0
3129,1685096487286,416.0,406.0
3130,1685096487286,381.0,448.0
3131,1685096487317,383.0,407.0
3132,1685096487317,373.0,434.0
3133,1685096487317,506.0,442.0
3134,1685096487317,452.0,471.0
3135,1685096487353,533.0,432.0
3136,1685096487353,461.0,466.0
3137,1685096487353,556.0,444.0
3138,1685096487384,450.0,445.0
3139,1685096487384,499.0,432.0
3140,1685096487384,407.0,400.0
3141,1685096487384,497.0,461.0
3142,1685096487416,315.0,403.0
3143,1685096487416,377.0,390.0
3144,1685096487416,491.0,462.0
3145,1685096487447,305.0,419.0
3146,1685096487447,360.0,381.0
3147,1685096487447,402.0,457.0
3148,1685096487447,451.0,426.0
3149,1685096487481,427.0,470.0
3150,1685096487481,533.0,447.0
3151,1685096487481,466.0,473.0
3152,1685096487510,545.0,440.0
3153,1685096487510,451.0,449.0
3154,1685096487510,538.0,434.0
3155,1685096487510,447.0,434.0
3156,1685096487542,472.0,433.0
3157,1685096487542,335.0,370.0
3158,1685096487542,479.0,443.0
3159,1685096487542,376.0,441.0
3160,1685096487591,280.0,370.0
3161,1685096487591,445.0,412.0
3162,1685096487591,365.0,443.0
3163,1685096487619,373.0,405.0
3164,1685096487619,382.0,436.0
3165,1685096487619,513.0,455.0
3166,1685096487619,455.0,495.0
3167,1685096487654,540.0,441.0
3168,1685096487654,459.0,468.0
3169,1685096487654,544.0,442.0
3170,1685096487685,437.0,436.0
3171,1685096487685,490.0,435.0
3172,1685096487685,413.0,408.0
3173,1685096487685,494.0,461.0
3174,1685096487720,310.0,395.0
3175,1685096487720,426.0,410.0
3176,1685096487720,487.0,461.0
3177,1685096487753,282.0,397.0
3178,1685096487753,381.0,389.0
3179,1685096487753,399.0,443.0
3180,1685096487753,439.0,436.0
3181,1685096487786,387.0,455.0
3182,1685096487786,516.0,442.0
3183,1685096487786,466.0,480.0
3184,1685096487820,534.0,438.0
3185,1685096487820,447.0,456.0
3186,1685096487820,557.0,436.0
3187,1685096487820,445.0,434.0
3188,1685096487854,478.0,437.0
3189,1685096487854,360.0,387.0
3190,1685096487854,496.0,452.0
3191,1685096487854,359.0,430.0
3192,1685096487887,310.0,371.0
3193,1685096487887,464.0,429.0
3194,1685096487887,355.0,436.0
3195,1685096487919,349.0,391.0
3196,1685096487919,385.0,436.0
3197,1685096487919,494.0,448.0
3198,1685096487919,447.0,470.0
3199,1685096487954,550.0,446.0
3200,1685096487954,472.0,475.0
3201,1685096487954,557.0,444.0
3202,1685096487986,454.0,443.0
3203,1685096487986,516.0,435.0
3204,1685096487986,445.0,422.0
3205,1685096487986,480.0,451.0
3206,1685096488019,303.0,382.0
3207,1685096488019,434.0,428.0
3208,1685096488019,443.0,455.0
3209,1685096488053,267.0,375.0
3210,1685096488053,394.0,395.0
3211,1685096488053,397.0,447.0
3212,1685096488053,419.0,428.0
3213,1685096488080,387.0,450.0
3214,1685096488080,512.0,446.0
3215,1685096488080,469.0,476.0
3216,1685096488111,543.0,438.0
3217,1685096488111,450.0,463.0
3218,1685096488111,545.0,436.0
3219,1685096488111,446.0,447.0
3220,1685096488144,476.0,438.0
3221,1685096488144,379.0,392.0
3222,1685096488144,492.0,450.0
3223,1685096488144,344.0,421.0
3224,1685096488188,348.0,389.0
3225,1685096488188,492.0,454.0
3226,1685096488188,340.0,424.0
3227,1685096488221,355.0,389.0
3228,1685096488221,396.0,452.0
3229,1685096488221,472.0,445.0
3230,1685096488221,436.0,472.0
3231,1685096488256,543.0,457.0
3232,1685096488256,454.0,465.0
3233,1685096488256,545.0,439.0
3234,1685096488287,445.0,447.0
3235,1685096488287,522.0,443.0
3236,1685096488287,445.0,419.0
3237,1685096488287,476.0,444.0
3238,1685096488320,327.0,381.0
3239,1685096488320,472.0,438.0
3240,1685096488320,419.0,438.0
3241,1685096488354,256.0,382.0
3242,1685096488354,415.0,404.0
3243,1685096488354,372.0,436.0
3244,1685096488354,384.0,417.0
3245,1685096488387,373.0,427.0
3246,1685096488387,505.0,452.0
3247,1685096488387,455.0,477.0
3248,1685096488414,540.0,438.0
3249,1685096488414,466.0,468.0
3250,1685096488414,560.0,442.0
3251,1685096488414,453.0,440.0
3252,1685096488446,489.0,443.0
3253,1685096488446,401.0,406.0
3254,1685096488446,492.0,442.0
3255,1685096488446,323.0,409.0
3256,1685096488489,372.0,395.0
3257,1685096488489,503.0,470.0
3258,1685096488489,316.0,415.0
3259,1685096488520,353.0,389.0
3260,1685096488520,402.0,449.0
3261,1685096488520,480.0,451.0
3262,1685096488520,420.0,471.0
3263,1685096488555,551.0,451.0
3264,1685096488555,473.0,478.0
3265,1685096488555,541.0,434.0
3266,1685096488588,445.0,450.0
3267,1685096488588,526.0,441.0
3268,1685096488588,440.0,427.0
3269,1685096488588,467.0,447.0
3270,1685096488621,320.0,381.0
3271,1685096488621,471.0,447.0
3272,1685096488621,395.0,440.0
3273,1685096488653,274.0,376.0
3274,1685096488653,446.0,420.0
3275,1685096488653,381.0,444.0
3276,1685096488653,378.0,408.0
3277,1685096488683,376.0,444.0
3278,1685096488683,509.0,455.0
3279,1685096488683,456.0,480.0
3280,1685096488713,537.0,439.0
3281,1685096488713,452.0,457.0
3282,1685096488713,553.0,447.0
3283,1685096488713,446.0,444.0
3284,1685096488754,495.0,434.0
3285,1685096488754,415.0,407.0
3286,1685096488754,496.0,458.0
3287,1685096488754,317.0,392.0
3288,1685096488789,410.0,412.0
3289,1685096488789,488.0,456.0
3290,1685096488789,293.0,401.0
3291,1685096488820,366.0,391.0
3292,1685096488820,396.0,440.0
3293,1685096488820,439.0,440.0
3294,1685096488820,397.0,457.0
3295,1685096488857,520.0,446.0
3296,1685096488857,463.0,473.0
3297,1685096488857,538.0,429.0
3298,1685096488888,458.0,465.0
3299,1685096488888,552.0,437.0
3300,1685096488888,446.0,433.0
3301,1685096488888,476.0,448.0
3302,1685096488920,346.0,389.0
3303,1685096488920,480.0,447.0
3304,1685096488920,364.0,422.0
3305,1685096488952,292.0,392.0
3306,1685096488952,466.0,429.0
3307,1685096488952,348.0,437.0
3308,1685096488952,337.0,385.0
3309,1685096488987,386.0,445.0
3310,1685096488987,496.0,453.0
3311,1685096488987,455.0,482.0
3312,1685096489015,541.0,447.0
3313,1685096489015,461.0,465.0
3314,1685096489015,556.0,445.0
3315,1685096489015,445.0,447.0
3316,1685096489056,499.0,429.0
3317,1685096489056,420.0,411.0
3318,1685096489056,483.0,459.0
3319,1685096489056,306.0,375.0
3320,1685096489089,434.0,425.0
3321,1685096489089,460.0,465.0
3322,1685096489089,278.0,392.0
3323,1685096489122,383.0,394.0
3324,1685096489122,389.0,438.0
3325,1685096489122,429.0,431.0
3326,1685096489122,392.0,450.0
3327,1685096489157,514.0,449.0
3328,1685096489157,468.0,481.0
3329,1685096489157,538.0,435.0
3330,1685096489188,453.0,457.0
3331,1685096489188,549.0,444.0
3332,1685096489188,443.0,435.0
3333,1685096489188,478.0,450.0
3334,1685096489219,369.0,379.0
3335,1685096489219,498.0,454.0
3336,1685096489219,354.0,420.0
3337,1685096489251,324.0,374.0
3338,1685096489251,494.0,453.0
3339,1685096489251,345.0,429.0
3340,1685096489251,353.0,390.0
3341,1685096489282,392.0,439.0
3342,1685096489282,497.0,446.0
3343,1685096489282,442.0,474.0
3344,1685096489314,539.0,440.0
3345,1685096489314,460.0,473.0
3346,1685096489314,551.0,440.0
3347,1685096489314,453.0,456.0
3348,1685096489345,520.0,433.0
3349,1685096489345,444.0,419.0
3350,1685096489345,469.0,443.0
3351,1685096489345,319.0,387.0
3352,1685096489391,459.0,423.0
3353,1685096489391,423.0,453.0
3354,1685096489391,270.0,385.0
3355,1685096489422,397.0,401.0
3356,1685096489422,392.0,443.0
3357,1685096489422,395.0,428.0
3358,1685096489422,380.0,444.0
3359,1685096489458,509.0,443.0
3360,1685096489458,467.0,482.0
3361,1685096489458,537.0,439.0
3362,1685096489489,468.0,469.0
3363,1685096489489,550.0,448.0
3364,1685096489489,452.0,441.0
3365,1685096489489,492.0,443.0
3366,1685096489520,379.0,390.0
3367,1685096489520,486.0,458.0
3368,1685096489520,336.0,404.0
3369,1685096489556,358.0,389.0
3370,1685096489556,493.0,449.0
3371,1685096489556,326.0,410.0
3372,1685096489556,348.0,393.0
3373,1685096489591,399.0,442.0
3374,1685096489591,479.0,448.0
3375,1685096489591,429.0,467.0
3376,1685096489616,536.0,452.0
3377,1685096489616,465.0,477.0
3378,1685096489616,541.0,433.0
3379,1685096489616,450.0,455.0
3380,1685096489647,521.0,435.0
3381,1685096489647,440.0,434.0
3382,1685096489647,471.0,444.0
3383,1685096489647,325.0,379.0
3384,1685096489692,475.0,439.0
3385,1685096489692,405.0,440.0
3386,1685096489692,282.0,377.0
3387,1685096489724,423.0,410.0
3388,1685096489724,391.0,449.0
3389,1685096489724,379.0,402.0
3390,1685096489724,387.0,449.0
3391,1685096489758,511.0,455.0
3392,1685096489758,460.0,472.0
3393,1685096489758,521.0,440.0
3394,1685096489790,462.0,465.0
3395,1685096489790,538.0,429.0
3396,1685096489790,448.0,452.0
3397,1685096489790,492.0,430.0
3398,1685096489821,410.0,409.0
3399,1685096489821,498.0,459.0
3400,1685096489821,329.0,405.0
3401,1685096489853,416.0,407.0
3402,1685096489853,479.0,444.0
3403,1685096489853,313.0,407.0
3404,1685096489853,359.0,390.0
3405,1685096489886,389.0,441.0
3406,1685096489886,439.0,436.0
3407,1685096489886,403.0,457.0
3408,1685096489916,505.0,445.0
3409,1685096489916,466.0,483.0
3410,1685096489916,536.0,443.0
3411,1685096489916,460.0,446.0
3412,1685096489957,545.0,459.0
3413,1685096489957,459.0,427.0
3414,1685096489957,496.0,449.0
3415,1685096489957,359.0,384.0
3416,1685096489991,491.0,447.0
3417,1685096489991,373.0,423.0
3418,1685096489991,305.0,374.0
3419,1685096490023,447.0,418.0
3420,1685096490023,361.0,415.0
3421,1685096490023,339.0,402.0
3422,1685096490023,378.0,434.0
3423,1685096490058,489.0,452.0
3424,1685096490058,453.0,489.0
3425,1685096490058,525.0,450.0
3426,1685096490089,465.0,471.0
3427,1685096490089,546.0,446.0
3428,1685096490089,449.0,448.0
3429,1685096490089,499.0,432.0
3430,1685096490121,429.0,411.0
3431,1685096490121,497.0,462.0
3432,1685096490121,313.0,378.0
3433,1685096490152,442.0,418.0
3434,1685096490152,459.0,452.0
3435,1685096490152,309.0,393.0
3436,1685096490152,379.0,390.0
3437,1685096490185,411.0,444.0
3438,1685096490185,436.0,449.0
3439,1685096490185,397.0,453.0
3440,1685096490215,498.0,454.0
3441,1685096490215,458.0,471.0
3442,1685096490215,516.0,441.0
3443,1685096490215,440.0,445.0
3444,1685096490251,518.0,442.0
3445,1685096490251,436.0,419.0
3446,1685096490251,480.0,455.0
3447,1685096490251,362.0,383.0
3448,1685096490292,506.0,464.0
3449,1685096490292,365.0,425.0
3450,1685096490292,366.0,384.0
3451,1685096490324,471.0,434.0
3452,1685096490324,370.0,435.0
3453,1685096490324,355.0,395.0
3454,1685096490324,386.0,437.0
3455,1685096490359,481.0,457.0
3456,1685096490359,430.0,482.0
3457,1685096490359,506.0,442.0
3458,1685096490391,439.0,481.0
3459,1685096490391,522.0,436.0
3460,1685096490391,443.0,454.0
3461,1685096490391,505.0,446.0
3462,1685096490422,446.0,407.0
3463,1685096490422,494.0,470.0
3464,1685096490422,342.0,377.0
3465,1685096490453,484.0,429.0
3466,1685096490453,436.0,444.0
3467,1685096490453,309.0,384.0
3468,1685096490453,397.0,383.0
3469,1685096490492,402.0,445.0
3470,1685096490492,384.0,418.0
3471,1685096490492,381.0,446.0
3472,1685096490526,480.0,459.0
3473,1685096490526,444.0,487.0
3474,1685096490526,509.0,443.0
3475,1685096490526,451.0,482.0
3476,1685096490553,536.0,445.0
3477,1685096490553,460.0,449.0
3478,1685096490553,480.0,429.0
3479,1685096490553,401.0,374.0
3480,1685096490593,502.0,452.0
3481,1685096490593,342.0,405.0
3482,1685096490593,396.0,378.0
3483,1685096490625,481.0,445.0
3484,1685096490625,366.0,411.0
3485,1685096490625,360.0,378.0
3486,1685096490625,405.0,448.0
3487,1685096490660,458.0,439.0
3488,1685096490660,429.0,507.0
3489,1685096490660,521.0,454.0
3490,1685096490692,456.0,497.0
3491,1685096490692,527.0,443.0
3492,1685096490692,442.0,456.0
3493,1685096490692,503.0,440.0
3494,1685096490724,448.0,412.0
3495,1685096490724,456.0,454.0
3496,1685096490724,331.0,366.0
3497,1685096490759,481.0,435.0
3498,1685096490759,415.0,441.0
3499,1685096490759,309.0,369.0
3500,1685096490759,428.0,399.0
3501,1685096490793,413.0,441.0
3502,1685096490793,387.0,416.0
3503,1685096490793,396.0,450.0
3504,1685096490818,516.0,457.0
3505,1685096490818,449.0,495.0
3506,1685096490818,517.0,433.0
3507,1685096490818,440.0,477.0
3508,1685096490850,508.0,436.0
3509,1685096490850,439.0,450.0
3510,1685096490850,453.0,437.0
3511,1685096490850,403.0,389.0
3512,1685096490894,486.0,477.0
3513,1685096490894,344.0,394.0
3514,1685096490894,413.0,389.0
3515,1685096490926,500.0,457.0
3516,1685096490926,342.0,390.0
3517,1685096490926,380.0,383.0
3518,1685096490926,420.0,443.0
3519,1685096490960,475.0,455.0
3520,1685096490960,412.0,476.0
3521,1685096490960,522.0,450.0
3522,1685096490993,452.0,500.0
3523,1685096490993,512.0,445.0
3524,1685096490993,441.0,485.0
3525,1685096490993,504.0,440.0
3526,1685096491025,456.0,435.0
3527,1685096491025,451.0,457.0
3528,1685096491025,346.0,356.0
3529,1685096491060,468.0,453.0
3530,1685096491060,405.0,435.0
3531,1685096491060,306.0,359.0
3532,1685096491060,443.0,390.0
3533,1685096491087,394.0,442.0
3534,1685096491087,379.0,378.0
3535,1685096491087,389.0,439.0
3536,1685096491126,506.0,458.0
3537,1685096491126,453.0,502.0
3538,1685096491126,522.0,447.0
3539,1685096491126,454.0,489.0
3540,1685096491159,522.0,450.0
3541,1685096491159,448.0,454.0
3542,1685096491159,466.0,447.0
3543,1685096491159,424.0,392.0
3544,1685096491203,466.0,475.0
3545,1685096491203,325.0,357.0
3546,1685096491203,414.0,402.0
3547,1685096491218,478.0,448.0
3548,1685096491218,325.0,389.0
3549,1685096491218,382.0,367.0
3550,1685096491218,420.0,445.0
3551,1685096491261,451.0,438.0
3552,1685096491261,398.0,462.0
3553,1685096491261,528.0,460.0
3554,1685096491292,462.0,502.0
3555,1685096491292,519.0,441.0
3556,1685096491292,455.0,480.0
3557,1685096491292,503.0,440.0
3558,1685096491323,458.0,450.0
3559,1685096491323,444.0,440.0
3560,1685096491323,370.0,363.0
3561,1685096491355,471.0,452.0
3562,1685096491355,371.0,421.0
3563,1685096491355,334.0,359.0
3564,1685096491355,464.0,419.0
3565,1685096491386,387.0,433.0
3566,1685096491386,374.0,384.0
3567,1685096491386,409.0,454.0
3568,1685096491417,494.0,459.0
3569,1685096491417,446.0,505.0
3570,1685096491417,518.0,434.0
3571,1685096491417,436.0,483.0
3572,1685096491449,511.0,440.0
3573,1685096491449,432.0,443.0
3574,1685096491449,468.0,443.0
3575,1685096491449,437.0,407.0
3576,1685096491495,462.0,480.0
3577,1685096491495,349.0,378.0
3578,1685096491495,445.0,425.0
3579,1685096491526,463.0,461.0
3580,1685096491526,320.0,372.0
3581,1685096491526,398.0,382.0
3582,1685096491526,410.0,437.0
3583,1685096491561,417.0,429.0
3584,1685096491561,394.0,454.0
3585,1685096491561,509.0,469.0
3586,1685096491593,446.0,489.0
3587,1685096491593,514.0,441.0
3588,1685096491593,445.0,474.0
3589,1685096491593,507.0,442.0
3590,1685096491628,467.0,438.0
3591,1685096491628,447.0,452.0
3592,1685096491628,404.0,374.0
3593,1685096491661,489.0,465.0
3594,1685096491661,376.0,409.0
3595,1685096491661,363.0,364.0
3596,1685096491661,479.0,441.0
3597,1685096491695,372.0,412.0
3598,1685096491695,353.0,369.0
3599,1685096491695,396.0,429.0
3600,1685096491725,483.0,458.0
3601,1685096491725,414.0,470.0
3602,1685096491725,522.0,464.0
3603,1685096491725,449.0,494.0
3604,1685096491751,522.0,453.0
3605,1685096491751,460.0,469.0
3606,1685096491751,489.0,448.0
3607,1685096491751,467.0,409.0
3608,1685096491796,460.0,468.0
3609,1685096491796,345.0,360.0
3610,1685096491796,445.0,417.0
3611,1685096491828,423.0,430.0
3612,1685096491828,306.0,364.0
3613,1685096491828,402.0,380.0
3614,1685096491828,407.0,443.0
3615,1685096491864,392.0,409.0
3616,1685096491864,381.0,447.0
3617,1685096491864,505.0,462.0
3618,1685096491895,441.0,497.0
3619,1685096491895,527.0,455.0
3620,1685096491895,450.0,482.0
3621,1685096491895,518.0,439.0
3622,1685096491928,463.0,455.0
3623,1685096491928,453.0,441.0
3624,1685096491928,426.0,384.0
3625,1685096491958,476.0,466.0
3626,1685096491958,353.0,392.0
3627,1685096491958,390.0,381.0
3628,1685096491958,488.0,450.0
3629,1685096491995,353.0,411.0
3630,1685096491995,362.0,372.0
3631,1685096491995,410.0,442.0
3632,1685096492023,483.0,472.0
3633,1685096492023,417.0,484.0
3634,1685096492023,521.0,463.0
3635,1685096492023,446.0,495.0
3636,1685096492061,508.0,429.0
3637,1685096492061,438.0,464.0
3638,1685096492061,484.0,441.0
3639,1685096492061,459.0,414.0
3640,1685096492095,451.0,468.0
3641,1685096492095,365.0,357.0
3642,1685096492095,480.0,438.0
3643,1685096492128,418.0,436.0
3644,1685096492128,314.0,363.0
3645,1685096492128,429.0,392.0
3646,1685096492128,397.0,435.0
3647,1685096492163,389.0,417.0
3648,1685096492163,382.0,441.0
3649,1685096492163,490.0,464.0
3650,1685096492194,430.0,511.0
3651,1685096492194,508.0,439.0
3652,1685096492196,441.0,485.0
3653,1685096492196,519.0,451.0
3654,1685096492226,456.0,444.0
3655,1685096492226,462.0,442.0
3656,1685096492226,444.0,387.0
3657,1685096492262,489.0,479.0
3658,1685096492263,357.0,391.0
3659,1685096492263,428.0,392.0
3660,1685096492263,487.0,455.0
3661,1685096492296,346.0,388.0
3662,1685096492296,365.0,375.0
3663,1685096492296,403.0,436.0
3664,1685096492327,435.0,439.0
3665,1685096492327,383.0,468.0
3666,1685096492327,509.0,453.0
3667,1685096492327,445.0,506.0
3668,1685096492353,517.0,447.0
3669,1685096492353,452.0,474.0
3670,1685096492353,517.0,460.0
3671,1685096492353,479.0,435.0
3672,1685096492397,465.0,449.0
3673,1685096492397,376.0,359.0
3674,1685096492397,489.0,454.0
3675,1685096492430,389.0,432.0
3676,1685096492430,325.0,352.0
3677,1685096492430,446.0,406.0
3678,1685096492430,386.0,426.0
3679,1685096492464,360.0,397.0
3680,1685096492464,382.0,441.0
3681,1685096492464,494.0,470.0
3682,1685096492495,428.0,506.0
3683,1685096492495,518.0,450.0
3684,1685096492495,446.0,487.0
3685,1685096492495,530.0,451.0
3686,1685096492529,452.0,452.0
3687,1685096492529,474.0,437.0
3688,1685096492529,445.0,395.0
3689,1685096492563,476.0,465.0
3690,1685096492563,337.0,368.0
3691,1685096492563,437.0,396.0
3692,1685096492563,464.0,452.0
3693,1685096492596,324.0,385.0
3694,1685096492596,383.0,372.0
3695,1685096492596,412.0,458.0
3696,1685096492621,433.0,442.0
3697,1685096492621,396.0,467.0
3698,1685096492621,512.0,465.0
3699,1685096492621,448.0,512.0
3700,1685096492662,515.0,444.0
3701,1685096492664,443.0,480.0
3702,1685096492664,507.0,434.0
3703,1685096492664,451.0,416.0
3704,1685096492697,456.0,460.0
3705,1685096492697,389.0,358.0
3706,1685096492697,485.0,458.0
3707,1685096492730,386.0,414.0
3708,1685096492730,354.0,367.0
3709,1685096492730,480.0,413.0
3710,1685096492730,382.0,417.0
3711,1685096492764,367.0,388.0
3712,1685096492764,397.0,439.0
3713,1685096492764,494.0,462.0
3714,1685096492796,420.0,482.0
3715,1685096492796,542.0,489.0
3716,1685096492796,429.0,465.0
3717,1685096492796,517.0,460.0
3718,1685096492829,441.0,459.0
3719,1685096492829,482.0,433.0
3720,1685096492829,459.0,432.0
3721,1685096492864,465.0,452.0
3722,1685096492864,360.0,375.0
3723,1685096492864,461.0,413.0
3724,1685096492864,455.0,445.0
3725,1685096492890,313.0,364.0
3726,1685096492890,398.0,361.0
3727,1685096492890,405.0,439.0
3728,1685096492921,397.0,409.0
3729,1685096492921,364.0,475.0
3730,1685096492921,497.0,449.0
3731,1685096492921,438.0,512.0
3732,1685096492953,520.0,446.0
3733,1685096492953,452.0,493.0
3734,1685096492953,536.0,454.0
3735,1685096492953,475.0,445.0
3736,1685096492998,456.0,439.0
3737,1685096492998,424.0,393.0
3738,1685096492998,487.0,447.0
3739,1685096493029,352.0,394.0
3740,1685096493029,361.0,370.0
3741,1685096493029,479.0,427.0
3742,1685096493029,359.0,423.0
3743,1685096493066,358.0,348.0
3744,1685096493066,388.0,437.0
3745,1685096493066,477.0,458.0
3746,1685096493098,419.0,497.0
3747,1685096493098,546.0,460.0
3748,1685096493098,445.0,515.0
3749,1685096493098,526.0,445.0
3750,1685096493129,442.0,444.0
3751,1685096493129,485.0,439.0
3752,1685096493129,463.0,413.0
3753,1685096493164,440.0,450.0
3754,1685096493164,352.0,330.0
3755,1685096493164,451.0,431.0
3756,1685096493164,435.0,438.0
3757,1685096493191,311.0,370.0
3758,1685096493191,441.0,390.0
3759,1685096493191,402.0,436.0
3760,1685096493224,403.0,424.0
3761,1685096493224,384.0,449.0
3762,1685096493224,511.0,463.0
3763,1685096493224,439.0,500.0
3764,1685096493255,507.0,452.0
3765,1685096493255,432.0,468.0
3766,1685096493255,517.0,452.0
3767,1685096493255,432.0,430.0
3768,1685096493299,458.0,437.0
3769,1685096493299,421.0,373.0
3770,1685096493299,488.0,471.0
3771,1685096493331,362.0,395.0
3772,1685096493331,397.0,376.0
3773,1685096493331,510.0,446.0
3774,1685096493331,345.0,409.0
3775,1685096493367,374.0,369.0
3776,1685096493367,415.0,443.0
3777,1685096493367,469.0,455.0
3778,1685096493397,399.0,468.0
3779,1685096493397,531.0,460.0
3780,1685096493397,436.0,498.0
