Sample Number (10000 samples per second),UNIX Timestamp (Milliseconds since 1970-01-01),C1 (),C2 ()
0,1684923411405,461.0,440.0
1,1684923411450,461.0,437.0
2,1684923411450,458.0,448.0
3,1684923411450,460.0,459.0
4,1684923411450,457.0,464.0
5,1684923411450,462.0,473.0
6,1684923411450,459.0,468.0
7,1684923411450,451.0,429.0
8,1684923411450,449.0,464.0
9,1684923411450,416.0,383.0
10,1684923411450,407.0,450.0
11,1684923411450,410.0,434.0
12,1684923411450,445.0,474.0
13,1684923411450,429.0,419.0
14,1684923411450,423.0,443.0
15,1684923411450,458.0,469.0
16,1684923411450,428.0,423.0
17,1684923411450,454.0,445.0
18,1684923411450,436.0,433.0
19,1684923411450,453.0,448.0
20,1684923411450,450.0,399.0
21,1684923411450,412.0,423.0
22,1684923411450,454.0,428.0
23,1684923411450,437.0,429.0
24,1684923411450,407.0,377.0
25,1684923411450,417.0,472.0
26,1684923411450,423.0,434.0
27,1684923411450,434.0,449.0
28,1684923411450,406.0,405.0
29,1684923411450,428.0,458.0
30,1684923411450,465.0,468.0
31,1684923411450,423.0,435.0
32,1684923411450,458.0,454.0
33,1684923411450,436.0,434.0
34,1684923411450,462.0,444.0
35,1684923411450,441.0,411.0
36,1684923411450,418.0,440.0
37,1684923411450,461.0,423.0
38,1684923411450,420.0,423.0
39,1684923411450,422.0,411.0
40,1684923411450,435.0,491.0
41,1684923411450,428.0,418.0
42,1684923411450,416.0,438.0
43,1684923411450,397.0,411.0
44,1684923411450,433.0,473.0
45,1684923411450,455.0,455.0
46,1684923411450,418.0,437.0
47,1684923411450,456.0,457.0
48,1684923411450,433.0,431.0
49,1684923411450,458.0,436.0
50,1684923411450,438.0,420.0
51,1684923411450,441.0,452.0
52,1684923411450,459.0,420.0
53,1684923411450,413.0,418.0
54,1684923411450,440.0,426.0
55,1684923411450,454.0,478.0
56,1684923411450,426.0,400.0
57,1684923411450,409.0,444.0
58,1684923411450,409.0,432.0
59,1684923411450,441.0,483.0
60,1684923411450,443.0,432.0
61,1684923411450,425.0,444.0
62,1684923411450,458.0,463.0
63,1684923411450,432.0,427.0
64,1684923411450,447.0,437.0
65,1684923411450,436.0,426.0
66,1684923411450,445.0,449.0
67,1684923411450,456.0,405.0
68,1684923411450,412.0,423.0
69,1684923411450,452.0,426.0
70,1684923411450,446.0,444.0
71,1684923411450,418.0,382.0
72,1684923411450,415.0,463.0
73,1684923411450,414.0,435.0
74,1684923411450,442.0,461.0
75,1684923411450,418.0,413.0
76,1684923411450,421.0,454.0
77,1684923411450,459.0,466.0
78,1684923411450,427.0,427.0
79,1684923411450,451.0,444.0
80,1684923411450,440.0,434.0
81,1684923411450,449.0,443.0
82,1684923411450,447.0,406.0
83,1684923411450,417.0,430.0
84,1684923411450,457.0,427.0
85,1684923411450,422.0,426.0
86,1684923411450,409.0,401.0
87,1684923411450,427.0,482.0
88,1684923411453,425.0,427.0
89,1684923411453,427.0,441.0
90,1684923411453,404.0,407.0
91,1684923411453,424.0,463.0
92,1684923411453,453.0,461.0
93,1684923411453,423.0,435.0
94,1684923411453,456.0,456.0
95,1684923411453,442.0,436.0
96,1684923411453,459.0,439.0
97,1684923411453,440.0,416.0
98,1684923411453,430.0,450.0
99,1684923411453,462.0,422.0
100,1684923411453,418.0,420.0
101,1684923411453,431.0,418.0
102,1684923411453,443.0,490.0
103,1684923411453,427.0,407.0
104,1684923411453,415.0,441.0
105,1684923411453,403.0,426.0
106,1684923411453,435.0,481.0
107,1684923411453,447.0,439.0
108,1684923411453,423.0,443.0
109,1684923411453,453.0,462.0
110,1684923411453,432.0,430.0
111,1684923411453,454.0,440.0
112,1684923411453,439.0,420.0
113,1684923411453,447.0,450.0
114,1684923411453,457.0,413.0
115,1684923411453,408.0,422.0
116,1684923411453,442.0,421.0
117,1684923411453,448.0,452.0
118,1684923411453,422.0,386.0
119,1684923411453,408.0,456.0
120,1684923411453,412.0,436.0
121,1684923411453,446.0,474.0
122,1684923411453,433.0,419.0
123,1684923411453,425.0,448.0
124,1684923411453,456.0,463.0
125,1684923411453,427.0,422.0
126,1684923411453,447.0,443.0
127,1684923411453,438.0,432.0
128,1684923411453,451.0,446.0
129,1684923411453,442.0,402.0
130,1684923411453,408.0,427.0
131,1684923411453,455.0,429.0
132,1684923411453,429.0,432.0
133,1684923411453,409.0,385.0
134,1684923411453,421.0,477.0
135,1684923411453,422.0,434.0
136,1684923411453,430.0,447.0
137,1684923411453,409.0,404.0
138,1684923411453,427.0,460.0
139,1684923411453,460.0,462.0
140,1684923411453,425.0,431.0
141,1684923411453,451.0,451.0
142,1684923411453,443.0,436.0
143,1684923411453,455.0,440.0
144,1684923411453,437.0,411.0
145,1684923411453,420.0,440.0
146,1684923411453,467.0,425.0
147,1684923411453,422.0,424.0
148,1684923411453,425.0,412.0
149,1684923411453,436.0,492.0
150,1684923411453,426.0,414.0
151,1684923411453,415.0,438.0
152,1684923411453,393.0,415.0
153,1684923411453,429.0,473.0
154,1684923411453,453.0,453.0
155,1684923411453,423.0,437.0
156,1684923411453,459.0,461.0
157,1684923411453,443.0,433.0
158,1684923411453,451.0,438.0
159,1684923411453,442.0,421.0
160,1684923411453,446.0,450.0
161,1684923411453,460.0,419.0
162,1684923411453,409.0,421.0
163,1684923411453,439.0,425.0
164,1684923411453,451.0,470.0
165,1684923411453,426.0,395.0
166,1684923411453,412.0,444.0
167,1684923411453,407.0,437.0
168,1684923411453,442.0,482.0
169,1684923411453,441.0,428.0
170,1684923411453,429.0,449.0
171,1684923411453,462.0,465.0
172,1684923411453,432.0,426.0
173,1684923411453,451.0,440.0
174,1684923411453,438.0,431.0
175,1684923411453,454.0,449.0
176,1684923411453,455.0,402.0
177,1684923411453,407.0,425.0
178,1684923411453,455.0,426.0
179,1684923411453,434.0,435.0
180,1684923411453,416.0,380.0
181,1684923411453,415.0,466.0
182,1684923411453,422.0,436.0
183,1684923411453,441.0,460.0
184,1684923411453,419.0,409.0
185,1684923411453,431.0,457.0
186,1684923411453,455.0,468.0
187,1684923411453,425.0,428.0
188,1684923411453,451.0,444.0
189,1684923411453,442.0,435.0
190,1684923411453,450.0,441.0
191,1684923411453,443.0,407.0
192,1684923411453,411.0,430.0
193,1684923411453,464.0,427.0
194,1684923411453,427.0,427.0
195,1684923411453,413.0,403.0
196,1684923411453,430.0,485.0
197,1684923411453,423.0,426.0
198,1684923411453,428.0,441.0
199,1684923411453,404.0,408.0
200,1684923411453,427.0,470.0
201,1684923411453,458.0,463.0
202,1684923411453,420.0,433.0
203,1684923411453,456.0,455.0
204,1684923411453,436.0,433.0
205,1684923411453,453.0,437.0
206,1684923411453,439.0,418.0
207,1684923411453,434.0,451.0
208,1684923411453,466.0,422.0
209,1684923411453,418.0,421.0
210,1684923411453,435.0,424.0
211,1684923411453,445.0,501.0
212,1684923411453,425.0,402.0
213,1684923411453,409.0,442.0
214,1684923411453,398.0,424.0
215,1684923411453,439.0,483.0
216,1684923411453,448.0,437.0
217,1684923411453,416.0,439.0
218,1684923411453,463.0,468.0
219,1684923411453,432.0,428.0
220,1684923411453,454.0,436.0
221,1684923411453,440.0,424.0
222,1684923411453,441.0,449.0
223,1684923411453,460.0,409.0
224,1684923411453,414.0,422.0
225,1684923411453,447.0,420.0
226,1684923411453,443.0,450.0
227,1684923411453,416.0,378.0
228,1684923411453,404.0,458.0
229,1684923411453,405.0,438.0
230,1684923411453,444.0,474.0
231,1684923411453,426.0,418.0
232,1684923411453,425.0,454.0
233,1684923411453,467.0,478.0
234,1684923411453,425.0,423.0
235,1684923411453,453.0,447.0
236,1684923411453,443.0,434.0
237,1684923411453,453.0,446.0
238,1684923411453,446.0,397.0
239,1684923411453,411.0,425.0
240,1684923411453,458.0,424.0
241,1684923411453,424.0,425.0
242,1684923411453,407.0,380.0
243,1684923411453,416.0,478.0
244,1684923411453,425.0,434.0
245,1684923411453,437.0,452.0
246,1684923411453,403.0,406.0
247,1684923411453,429.0,468.0
248,1684923411453,460.0,470.0
249,1684923411453,425.0,431.0
250,1684923411453,453.0,454.0
251,1684923411453,439.0,432.0
252,1684923411453,458.0,438.0
253,1684923411453,434.0,406.0
254,1684923411453,424.0,447.0
255,1684923411453,465.0,421.0
256,1684923411453,412.0,420.0
257,1684923411453,422.0,417.0
258,1684923411453,436.0,498.0
259,1684923411453,429.0,416.0
260,1684923411453,422.0,438.0
261,1684923411453,395.0,413.0
262,1684923411453,430.0,479.0
263,1684923411453,453.0,450.0
264,1684923411453,418.0,433.0
265,1684923411453,456.0,461.0
266,1684923411453,439.0,431.0
267,1684923411453,455.0,437.0
268,1684923411453,442.0,418.0
269,1684923411453,445.0,453.0
270,1684923411453,466.0,420.0
271,1684923411453,415.0,418.0
272,1684923411453,446.0,426.0
273,1684923411453,457.0,479.0
274,1684923411453,429.0,391.0
275,1684923411453,408.0,447.0
276,1684923411453,403.0,430.0
277,1684923411453,442.0,480.0
278,1684923411453,436.0,423.0
279,1684923411453,424.0,446.0
280,1684923411453,459.0,468.0
281,1684923411453,432.0,425.0
282,1684923411453,460.0,443.0
283,1684923411453,440.0,433.0
284,1684923411453,455.0,448.0
285,1684923411453,454.0,398.0
286,1684923411453,419.0,423.0
287,1684923411453,455.0,419.0
288,1684923411453,436.0,433.0
289,1684923411453,414.0,373.0
290,1684923411453,412.0,466.0
291,1684923411453,416.0,437.0
292,1684923411453,436.0,462.0
293,1684923411453,411.0,408.0
294,1684923411453,423.0,461.0
295,1684923411453,465.0,475.0
296,1684923411453,428.0,431.0
297,1684923411453,457.0,449.0
298,1684923411453,438.0,433.0
299,1684923411453,460.0,443.0
300,1684923411453,442.0,402.0
301,1684923411453,415.0,430.0
302,1684923411453,459.0,421.0
303,1684923411453,418.0,420.0
304,1684923411453,414.0,402.0
305,1684923411453,425.0,490.0
306,1684923411453,427.0,427.0
307,1684923411453,426.0,442.0
308,1684923411453,396.0,410.0
309,1684923411453,437.0,474.0
310,1684923411453,461.0,466.0
311,1684923411453,423.0,436.0
312,1684923411453,462.0,458.0
313,1684923411453,436.0,428.0
314,1684923411453,452.0,436.0
315,1684923411453,435.0,413.0
316,1684923411453,436.0,454.0
317,1684923411453,462.0,420.0
318,1684923411453,412.0,418.0
319,1684923411453,434.0,422.0
320,1684923411453,446.0,497.0
321,1684923411453,430.0,406.0
322,1684923411453,416.0,440.0
323,1684923411453,404.0,427.0
324,1684923411453,444.0,490.0
325,1684923411453,448.0,440.0
326,1684923411453,420.0,444.0
327,1684923411453,453.0,461.0
328,1684923411453,433.0,424.0
329,1684923411453,454.0,437.0
330,1684923411453,436.0,423.0
331,1684923411453,448.0,456.0
332,1684923411453,461.0,411.0
333,1684923411453,410.0,421.0
334,1684923411453,455.0,426.0
335,1684923411453,444.0,455.0
336,1684923411453,423.0,383.0
337,1684923411453,411.0,456.0
338,1684923411453,410.0,434.0
339,1684923411453,448.0,472.0
340,1684923411453,426.0,416.0
341,1684923411453,426.0,451.0
342,1684923411453,453.0,474.0
343,1684923411453,425.0,423.0
344,1684923411453,456.0,449.0
345,1684923411453,440.0,437.0
346,1684923411453,455.0,444.0
347,1684923411453,448.0,400.0
348,1684923411453,416.0,423.0
349,1684923411453,461.0,427.0
350,1684923411453,430.0,425.0
351,1684923411453,413.0,380.0
352,1684923411453,410.0,477.0
353,1684923411453,423.0,434.0
354,1684923411453,432.0,447.0
355,1684923411453,410.0,404.0
356,1684923411453,428.0,466.0
357,1684923411453,464.0,472.0
358,1684923411453,422.0,433.0
359,1684923411453,456.0,458.0
360,1684923411453,441.0,433.0
361,1684923411453,460.0,439.0
362,1684923411453,441.0,405.0
363,1684923411453,425.0,443.0
364,1684923411453,460.0,418.0
365,1684923411453,410.0,418.0
366,1684923411453,426.0,412.0
367,1684923411453,438.0,495.0
368,1684923411453,429.0,415.0
369,1684923411453,417.0,440.0
370,1684923411453,398.0,418.0
371,1684923411453,438.0,482.0
372,1684923411453,450.0,455.0
373,1684923411453,421.0,438.0
374,1684923411453,457.0,465.0
375,1684923411453,439.0,430.0
376,1684923411453,455.0,435.0
377,1684923411453,437.0,415.0
378,1684923411453,446.0,449.0
379,1684923411453,462.0,418.0
380,1684923411453,410.0,418.0
381,1684923411453,444.0,424.0
382,1684923411453,455.0,475.0
383,1684923411453,426.0,393.0
384,1684923411453,405.0,445.0
385,1684923411453,407.0,432.0
386,1684923411453,451.0,485.0
387,1684923411453,438.0,429.0
388,1684923411453,427.0,449.0
389,1684923411453,457.0,467.0
390,1684923411453,430.0,421.0
391,1684923411453,452.0,439.0
392,1684923411453,435.0,429.0
393,1684923411453,453.0,447.0
394,1684923411453,456.0,399.0
395,1684923411453,409.0,427.0
396,1684923411453,457.0,426.0
397,1684923411453,436.0,439.0
398,1684923411453,412.0,378.0
399,1684923411453,415.0,466.0
400,1684923411453,418.0,436.0
401,1684923411453,443.0,458.0
402,1684923411453,416.0,408.0
403,1684923411453,427.0,461.0
404,1684923411453,459.0,473.0
405,1684923411453,424.0,424.0
406,1684923411453,453.0,447.0
407,1684923411453,440.0,434.0
408,1684923411453,462.0,447.0
409,1684923411453,446.0,404.0
410,1684923411453,420.0,430.0
411,1684923411453,458.0,422.0
412,1684923411453,421.0,419.0
413,1684923411453,414.0,401.0
414,1684923411453,427.0,484.0
415,1684923411453,424.0,426.0
416,1684923411453,423.0,438.0
417,1684923411453,395.0,407.0
418,1684923411453,436.0,471.0
419,1684923411453,455.0,467.0
420,1684923411453,429.0,437.0
421,1684923411453,455.0,462.0
422,1684923411453,441.0,435.0
423,1684923411453,459.0,439.0
424,1684923411453,439.0,417.0
425,1684923411453,432.0,450.0
426,1684923411453,461.0,419.0
427,1684923411453,411.0,413.0
428,1684923411453,435.0,415.0
429,1684923411453,445.0,491.0
430,1684923411453,425.0,405.0
431,1684923411453,412.0,440.0
432,1684923411453,399.0,428.0
433,1684923411453,441.0,484.0
434,1684923411453,446.0,438.0
435,1684923411453,426.0,448.0
436,1684923411453,458.0,464.0
437,1684923411453,437.0,432.0
438,1684923411453,452.0,439.0
439,1684923411453,438.0,424.0
440,1684923411453,450.0,443.0
441,1684923411453,457.0,409.0
442,1684923411453,412.0,422.0
443,1684923411453,448.0,423.0
444,1684923411453,442.0,448.0
445,1684923411453,422.0,385.0
446,1684923411453,406.0,454.0
447,1684923411453,417.0,437.0
448,1684923411453,451.0,475.0
449,1684923411453,426.0,420.0
450,1684923411453,428.0,454.0
451,1684923411453,458.0,470.0
452,1684923411453,427.0,425.0
453,1684923411453,452.0,444.0
454,1684923411453,432.0,432.0
455,1684923411453,455.0,444.0
456,1684923411453,447.0,405.0
457,1684923411453,416.0,426.0
458,1684923411453,461.0,427.0
459,1684923411453,430.0,428.0
460,1684923411453,415.0,385.0
461,1684923411453,421.0,476.0
462,1684923411453,425.0,430.0
463,1684923411453,428.0,446.0
464,1684923411453,409.0,406.0
465,1684923411453,431.0,465.0
466,1684923411453,458.0,468.0
467,1684923411453,423.0,435.0
468,1684923411453,455.0,455.0
469,1684923411453,443.0,439.0
470,1684923411453,457.0,442.0
471,1684923411453,441.0,410.0
472,1684923411453,425.0,443.0
473,1684923411453,460.0,420.0
474,1684923411453,418.0,420.0
475,1684923411453,424.0,410.0
476,1684923411453,439.0,491.0
477,1684923411453,421.0,414.0
478,1684923411453,413.0,437.0
479,1684923411453,396.0,416.0
480,1684923411453,435.0,479.0
481,1684923411453,456.0,457.0
482,1684923411453,420.0,442.0
483,1684923411453,460.0,460.0
484,1684923411453,436.0,435.0
485,1684923411453,457.0,440.0
486,1684923411453,440.0,419.0
487,1684923411453,448.0,449.0
488,1684923411453,460.0,418.0
489,1684923411453,411.0,416.0
490,1684923411453,441.0,419.0
491,1684923411453,451.0,470.0
492,1684923411453,418.0,394.0
493,1684923411453,407.0,445.0
494,1684923411453,404.0,432.0
495,1684923411453,442.0,483.0
496,1684923411453,436.0,432.0
497,1684923411453,427.0,449.0
498,1684923411453,460.0,468.0
499,1684923411453,432.0,425.0
500,1684923411453,449.0,442.0
501,1684923411453,440.0,430.0
502,1684923411453,449.0,444.0
503,1684923411453,454.0,401.0
504,1684923411453,412.0,423.0
505,1684923411453,455.0,423.0
506,1684923411453,436.0,436.0
507,1684923411453,417.0,381.0
508,1684923411453,417.0,465.0
509,1684923411453,417.0,436.0
510,1684923411453,439.0,459.0
511,1684923411453,414.0,411.0
512,1684923411453,428.0,459.0
513,1684923411453,466.0,474.0
514,1684923411453,429.0,429.0
515,1684923411453,451.0,446.0
516,1684923411458,437.0,434.0
517,1684923411458,454.0,442.0
518,1684923411458,443.0,405.0
519,1684923411458,418.0,430.0
520,1684923411458,462.0,426.0
521,1684923411458,421.0,422.0
522,1684923411458,411.0,404.0
523,1684923411458,426.0,484.0
524,1684923411458,425.0,421.0
525,1684923411458,431.0,440.0
526,1684923411458,401.0,407.0
527,1684923411458,437.0,470.0
528,1684923411458,457.0,465.0
529,1684923411458,423.0,437.0
530,1684923411458,459.0,456.0
531,1684923411458,440.0,432.0
532,1684923411458,453.0,436.0
533,1684923411458,435.0,415.0
534,1684923411458,434.0,452.0
535,1684923411458,459.0,420.0
536,1684923411458,416.0,418.0
537,1684923411458,434.0,418.0
538,1684923411458,447.0,491.0
539,1684923411458,430.0,404.0
540,1684923411458,412.0,440.0
541,1684923411458,400.0,427.0
542,1684923411458,440.0,484.0
543,1684923411458,442.0,441.0
544,1684923411458,424.0,447.0
545,1684923411458,458.0,464.0
546,1684923411458,438.0,429.0
547,1684923411458,460.0,437.0
548,1684923411458,437.0,424.0
549,1684923411458,450.0,449.0
550,1684923411458,462.0,409.0
551,1684923411458,411.0,419.0
552,1684923411458,449.0,423.0
553,1684923411458,441.0,449.0
554,1684923411458,418.0,385.0
555,1684923411458,417.0,456.0
556,1684923411458,410.0,434.0
557,1684923411458,440.0,471.0
558,1684923411458,425.0,420.0
559,1684923411458,425.0,453.0
560,1684923411458,458.0,473.0
561,1684923411458,428.0,424.0
562,1684923411458,456.0,447.0
563,1684923411458,439.0,433.0
564,1684923411458,457.0,445.0
565,1684923411458,448.0,401.0
566,1684923411458,416.0,424.0
567,1684923411458,457.0,422.0
568,1684923411458,427.0,427.0
569,1684923411458,410.0,387.0
570,1684923411458,416.0,477.0
571,1684923411458,416.0,430.0
572,1684923411458,430.0,444.0
573,1684923411458,412.0,409.0
574,1684923411458,432.0,467.0
575,1684923411458,460.0,471.0
576,1684923411458,423.0,432.0
577,1684923411458,455.0,451.0
578,1684923411458,437.0,434.0
579,1684923411458,454.0,439.0
580,1684923411458,441.0,408.0
581,1684923411458,428.0,442.0
582,1684923411458,463.0,421.0
583,1684923411458,418.0,419.0
584,1684923411458,426.0,412.0
585,1684923411458,435.0,491.0
586,1684923411458,421.0,412.0
587,1684923411458,416.0,439.0
588,1684923411458,397.0,420.0
589,1684923411458,433.0,478.0
590,1684923411458,450.0,452.0
591,1684923411458,427.0,442.0
592,1684923411458,455.0,459.0
593,1684923411458,432.0,431.0
594,1684923411458,458.0,437.0
595,1684923411458,434.0,419.0
596,1684923411458,444.0,449.0
597,1684923411458,468.0,419.0
598,1684923411458,412.0,421.0
599,1684923411458,447.0,425.0
600,1684923411458,455.0,469.0
601,1684923411458,422.0,393.0
602,1684923411458,410.0,447.0
603,1684923411458,408.0,433.0
604,1684923411458,439.0,480.0
605,1684923411458,438.0,426.0
606,1684923411458,423.0,450.0
607,1684923411458,457.0,466.0
608,1684923411458,433.0,424.0
609,1684923411458,452.0,440.0
610,1684923411458,441.0,432.0
611,1684923411458,455.0,449.0
612,1684923411458,452.0,403.0
613,1684923411458,413.0,423.0
614,1684923411458,456.0,425.0
615,1684923411458,431.0,433.0
616,1684923411458,419.0,374.0
617,1684923411458,416.0,467.0
618,1684923411458,415.0,430.0
619,1684923411458,444.0,463.0
620,1684923411458,416.0,406.0
621,1684923411458,422.0,462.0
622,1684923411458,460.0,477.0
623,1684923411458,428.0,427.0
624,1684923411458,454.0,449.0
625,1684923411458,437.0,431.0
626,1684923411458,459.0,442.0
627,1684923411458,437.0,401.0
628,1684923411458,417.0,430.0
629,1684923411458,464.0,426.0
630,1684923411458,419.0,421.0
631,1684923411458,414.0,400.0
632,1684923411458,423.0,489.0
633,1684923411458,424.0,422.0
634,1684923411458,423.0,439.0
635,1684923411458,401.0,407.0
636,1684923411458,436.0,473.0
637,1684923411458,458.0,468.0
638,1684923411458,424.0,433.0
639,1684923411458,460.0,458.0
640,1684923411458,438.0,433.0
641,1684923411458,459.0,436.0
642,1684923411458,433.0,413.0
643,1684923411458,432.0,451.0
644,1684923411458,462.0,417.0
645,1684923411458,415.0,420.0
646,1684923411458,438.0,422.0
647,1684923411458,447.0,500.0
648,1684923411458,422.0,401.0
649,1684923411458,413.0,440.0
650,1684923411458,403.0,425.0
651,1684923411458,441.0,486.0
652,1684923411458,443.0,439.0
653,1684923411458,420.0,443.0
654,1684923411458,463.0,467.0
655,1684923411458,438.0,428.0
656,1684923411458,450.0,440.0
657,1684923411458,433.0,419.0
658,1684923411458,451.0,450.0
659,1684923411458,461.0,410.0
660,1684923411458,417.0,421.0
661,1684923411458,450.0,425.0
662,1684923411458,447.0,452.0
663,1684923411458,418.0,380.0
664,1684923411458,412.0,457.0
665,1684923411458,408.0,438.0
666,1684923411458,443.0,475.0
667,1684923411458,421.0,416.0
668,1684923411458,429.0,452.0
669,1684923411458,464.0,473.0
670,1684923411458,429.0,424.0
671,1684923411458,456.0,446.0
672,1684923411458,444.0,432.0
673,1684923411458,463.0,444.0
674,1684923411458,445.0,399.0
675,1684923411458,418.0,424.0
676,1684923411458,456.0,421.0
677,1684923411458,426.0,424.0
678,1684923411458,410.0,376.0
679,1684923411458,419.0,480.0
680,1684923411458,424.0,435.0
681,1684923411458,429.0,452.0
682,1684923411458,402.0,406.0
683,1684923411458,433.0,470.0
684,1684923411458,460.0,474.0
685,1684923411458,428.0,430.0
686,1684923411458,453.0,454.0
687,1684923411458,445.0,433.0
688,1684923411458,463.0,437.0
689,1684923411458,442.0,406.0
690,1684923411458,426.0,444.0
691,1684923411458,467.0,419.0
692,1684923411458,408.0,417.0
693,1684923411458,423.0,411.0
694,1684923411458,436.0,498.0
695,1684923411458,422.0,416.0
696,1684923411458,414.0,439.0
697,1684923411458,392.0,413.0
698,1684923411458,440.0,482.0
699,1684923411458,459.0,458.0
700,1684923411458,426.0,438.0
701,1684923411458,455.0,463.0
702,1684923411458,436.0,429.0
703,1684923411458,456.0,438.0
704,1684923411458,439.0,418.0
705,1684923411458,444.0,451.0
706,1684923411458,461.0,418.0
707,1684923411458,409.0,418.0
708,1684923411458,451.0,424.0
709,1684923411458,449.0,480.0
710,1684923411458,417.0,392.0
711,1684923411458,408.0,446.0
712,1684923411458,397.0,431.0
713,1684923411458,445.0,486.0
714,1684923411458,435.0,428.0
715,1684923411458,423.0,448.0
716,1684923411458,458.0,470.0
717,1684923411458,431.0,426.0
718,1684923411458,456.0,442.0
719,1684923411458,440.0,429.0
720,1684923411458,453.0,448.0
721,1684923411458,450.0,398.0
722,1684923411458,411.0,424.0
723,1684923411458,456.0,425.0
724,1684923411458,433.0,437.0
725,1684923411458,414.0,375.0
726,1684923411458,408.0,465.0
727,1684923411458,417.0,435.0
728,1684923411458,441.0,463.0
729,1684923411461,405.0,410.0
730,1684923411461,429.0,460.0
731,1684923411461,460.0,474.0
732,1684923411461,429.0,427.0
733,1684923411461,451.0,449.0
734,1684923411461,440.0,434.0
735,1684923411461,461.0,447.0
736,1684923411461,444.0,401.0
737,1684923411461,421.0,429.0
738,1684923411461,455.0,423.0
739,1684923411461,422.0,421.0
740,1684923411461,413.0,397.0
741,1684923411461,421.0,486.0
742,1684923411461,422.0,425.0
743,1684923411461,424.0,442.0
744,1684923411461,397.0,406.0
745,1684923411461,433.0,472.0
746,1684923411461,456.0,470.0
747,1684923411461,427.0,435.0
748,1684923411461,457.0,461.0
749,1684923411461,442.0,433.0
750,1684923411461,463.0,439.0
751,1684923411461,433.0,412.0
752,1684923411461,436.0,453.0
753,1684923411461,460.0,418.0
754,1684923411461,411.0,413.0
755,1684923411461,432.0,417.0
756,1684923411461,445.0,495.0
757,1684923411461,426.0,406.0
758,1684923411461,408.0,440.0
759,1684923411461,399.0,426.0
760,1684923411461,443.0,485.0
761,1684923411461,451.0,448.0
762,1684923411461,424.0,444.0
763,1684923411461,457.0,462.0
764,1684923411461,434.0,425.0
765,1684923411461,451.0,438.0
766,1684923411461,438.0,418.0
767,1684923411461,446.0,449.0
768,1684923411461,457.0,410.0
769,1684923411461,410.0,421.0
770,1684923411461,450.0,420.0
771,1684923411461,441.0,453.0
772,1684923411461,418.0,388.0
773,1684923411461,410.0,453.0
774,1684923411461,409.0,433.0
775,1684923411461,444.0,467.0
776,1684923411461,425.0,426.0
777,1684923411461,426.0,452.0
778,1684923411461,460.0,471.0
779,1684923411461,428.0,424.0
780,1684923411461,454.0,446.0
781,1684923411461,439.0,431.0
782,1684923411461,455.0,445.0
783,1684923411461,444.0,401.0
784,1684923411461,424.0,424.0
785,1684923411461,457.0,424.0
786,1684923411461,434.0,426.0
787,1684923411461,409.0,386.0
788,1684923411461,418.0,470.0
789,1684923411461,417.0,428.0
790,1684923411461,424.0,445.0
791,1684923411461,411.0,410.0
792,1684923411461,429.0,462.0
793,1684923411461,460.0,474.0
794,1684923411461,426.0,436.0
795,1684923411461,455.0,455.0
796,1684923411461,446.0,436.0
797,1684923411461,455.0,440.0
798,1684923411461,442.0,410.0
799,1684923411461,433.0,441.0
800,1684923411461,457.0,420.0
801,1684923411461,421.0,418.0
802,1684923411461,419.0,407.0
803,1684923411461,432.0,484.0
804,1684923411461,420.0,414.0
805,1684923411461,415.0,437.0
806,1684923411461,401.0,419.0
807,1684923411461,435.0,474.0
808,1684923411461,455.0,463.0
809,1684923411461,426.0,447.0
810,1684923411461,457.0,463.0
811,1684923411461,443.0,432.0
812,1684923411461,457.0,438.0
813,1684923411461,442.0,418.0
814,1684923411461,437.0,446.0
815,1684923411461,461.0,417.0
816,1684923411461,417.0,417.0
817,1684923411461,437.0,419.0
818,1684923411461,444.0,467.0
819,1684923411461,420.0,397.0
820,1684923411461,404.0,448.0
821,1684923411461,406.0,435.0
822,1684923411461,441.0,479.0
823,1684923411461,439.0,439.0
824,1684923411461,432.0,453.0
825,1684923411461,458.0,467.0
826,1684923411461,435.0,430.0
827,1684923411461,455.0,440.0
828,1684923411461,443.0,429.0
829,1684923411461,451.0,444.0
830,1684923411461,453.0,404.0
831,1684923411461,417.0,423.0
832,1684923411461,451.0,422.0
833,1684923411461,439.0,436.0
834,1684923411461,417.0,386.0
835,1684923411461,413.0,460.0
836,1684923411461,422.0,432.0
837,1684923411461,438.0,451.0
838,1684923411461,421.0,419.0
839,1684923411461,433.0,458.0
840,1684923411461,457.0,473.0
841,1684923411461,428.0,428.0
842,1684923411461,454.0,447.0
843,1684923411461,439.0,434.0
844,1684923411461,454.0,444.0
845,1684923411461,445.0,410.0
846,1684923411461,428.0,432.0
847,1684923411461,463.0,423.0
848,1684923411461,423.0,423.0
849,1684923411461,415.0,403.0
850,1684923411461,425.0,476.0
851,1684923411461,424.0,421.0
852,1684923411461,416.0,438.0
853,1684923411461,402.0,410.0
854,1684923411461,434.0,465.0
855,1684923411461,452.0,469.0
856,1684923411461,431.0,440.0
857,1684923411461,449.0,458.0
858,1684923411461,443.0,437.0
859,1684923411461,453.0,442.0
860,1684923411461,444.0,415.0
861,1684923411461,440.0,446.0
862,1684923411461,457.0,419.0
863,1684923411461,419.0,415.0
864,1684923411461,430.0,416.0
865,1684923411461,438.0,484.0
866,1684923411461,422.0,405.0
867,1684923411461,411.0,440.0
868,1684923411461,398.0,430.0
869,1684923411461,437.0,479.0
870,1684923411461,449.0,450.0
871,1684923411461,428.0,452.0
872,1684923411461,448.0,464.0
873,1684923411461,440.0,432.0
874,1684923411461,451.0,437.0
875,1684923411461,440.0,421.0
876,1684923411461,450.0,446.0
877,1684923411461,454.0,410.0
878,1684923411461,418.0,420.0
879,1684923411461,444.0,416.0
880,1684923411461,440.0,446.0
881,1684923411461,419.0,390.0
882,1684923411461,413.0,454.0
883,1684923411461,413.0,435.0
884,1684923411461,437.0,470.0
885,1684923411461,430.0,429.0
886,1684923411461,434.0,456.0
887,1684923411461,458.0,472.0
888,1684923411461,432.0,428.0
889,1684923411461,452.0,443.0
890,1684923411461,436.0,431.0
891,1684923411461,456.0,447.0
892,1684923411461,445.0,405.0
893,1684923411461,420.0,424.0
894,1684923411461,454.0,420.0
895,1684923411461,423.0,425.0
896,1684923411461,412.0,389.0
897,1684923411461,417.0,470.0
898,1684923411461,415.0,429.0
899,1684923411461,425.0,443.0
900,1684923411461,411.0,415.0
901,1684923411461,436.0,465.0
902,1684923411461,457.0,471.0
903,1684923411461,427.0,434.0
904,1684923411461,453.0,455.0
905,1684923411461,442.0,436.0
906,1684923411461,452.0,440.0
907,1684923411461,443.0,413.0
908,1684923411461,425.0,439.0
909,1684923411464,460.0,420.0
910,1684923411465,420.0,418.0
911,1684923411465,426.0,409.0
912,1684923411465,435.0,487.0
913,1684923411465,419.0,413.0
914,1684923411465,417.0,435.0
915,1684923411465,403.0,421.0
916,1684923411465,435.0,479.0
917,1684923411465,456.0,463.0
918,1684923411465,428.0,445.0
919,1684923411465,457.0,460.0
920,1684923411465,441.0,435.0
921,1684923411465,459.0,439.0
922,1684923411465,442.0,421.0
923,1684923411465,447.0,447.0
924,1684923411465,459.0,418.0
925,1684923411465,412.0,417.0
926,1684923411465,436.0,418.0
927,1684923411465,448.0,466.0
928,1684923411465,414.0,395.0
929,1684923411465,411.0,443.0
930,1684923411465,407.0,432.0
931,1684923411465,440.0,477.0
932,1684923411465,437.0,437.0
933,1684923411465,427.0,453.0
934,1684923411465,457.0,469.0
935,1684923411465,436.0,429.0
936,1684923411465,452.0,442.0
937,1684923411465,441.0,428.0
938,1684923411465,454.0,446.0
939,1684923411465,456.0,403.0
940,1684923411465,424.0,421.0
941,1684923411465,450.0,423.0
942,1684923411465,428.0,433.0
943,1684923411465,413.0,382.0
944,1684923411465,416.0,463.0
945,1684923411465,410.0,433.0
946,1684923411465,437.0,455.0
947,1684923411465,421.0,420.0
948,1684923411465,429.0,459.0
949,1684923411466,452.0,471.0
950,1684923411466,430.0,430.0
951,1684923411466,454.0,449.0
952,1684923411466,442.0,435.0
953,1684923411466,455.0,441.0
954,1684923411466,444.0,407.0
955,1684923411466,421.0,431.0
956,1684923411466,447.0,421.0
957,1684923411466,423.0,420.0
958,1684923411466,417.0,405.0
959,1684923411466,425.0,479.0
960,1684923411466,421.0,421.0
961,1684923411466,417.0,435.0
962,1684923411466,402.0,414.0
963,1684923411466,433.0,469.0
964,1684923411466,454.0,470.0
965,1684923411466,433.0,440.0
966,1684923411466,453.0,454.0
967,1684923411466,439.0,433.0
968,1684923411466,453.0,437.0
969,1684923411466,445.0,418.0
970,1684923411466,438.0,447.0
971,1684923411466,456.0,420.0
972,1684923411466,416.0,413.0
973,1684923411466,433.0,420.0
974,1684923411466,440.0,486.0
975,1684923411466,421.0,403.0
976,1684923411466,413.0,439.0
977,1684923411466,406.0,429.0
978,1684923411466,440.0,478.0
979,1684923411466,443.0,448.0
980,1684923411466,429.0,449.0
981,1684923411466,452.0,466.0
982,1684923411466,437.0,431.0
983,1684923411466,454.0,438.0
984,1684923411466,438.0,425.0
985,1684923411466,449.0,447.0
986,1684923411466,460.0,411.0
987,1684923411466,415.0,420.0
988,1684923411466,447.0,420.0
989,1684923411466,438.0,446.0
990,1684923411466,418.0,386.0
991,1684923411466,410.0,453.0
992,1684923411466,410.0,435.0
993,1684923411466,437.0,466.0
994,1684923411466,429.0,427.0
995,1684923411466,428.0,457.0
996,1684923411466,457.0,473.0
997,1684923411466,438.0,431.0
998,1684923411466,458.0,447.0
999,1684923411466,444.0,435.0
1000,1684923411466,453.0,443.0
1001,1684923411466,450.0,406.0
1002,1684923411466,423.0,423.0
1003,1684923411466,454.0,423.0
1004,1684923411466,425.0,424.0
1005,1684923411466,410.0,385.0
1006,1684923411466,421.0,472.0
1007,1684923411466,421.0,429.0
1008,1684923411466,424.0,446.0
1009,1684923411466,411.0,413.0
1010,1684923411466,435.0,467.0
1011,1684923411466,454.0,471.0
1012,1684923411466,430.0,434.0
1013,1684923411466,448.0,453.0
1014,1684923411466,444.0,434.0
1015,1684923411466,454.0,437.0
1016,1684923411466,439.0,410.0
1017,1684923411466,431.0,443.0
1018,1684923411466,459.0,419.0
1019,1684923411466,415.0,420.0
1020,1684923411466,423.0,411.0
1021,1684923411466,437.0,488.0
1022,1684923411466,425.0,413.0
1023,1684923411466,413.0,438.0
1024,1684923411466,403.0,423.0
1025,1684923411466,436.0,477.0
1026,1684923411466,450.0,460.0
1027,1684923411466,424.0,447.0
1028,1684923411466,451.0,459.0
1029,1684923411466,441.0,433.0
1030,1684923411466,453.0,439.0
1031,1684923411466,442.0,419.0
1032,1684923411466,445.0,447.0
1033,1684923411466,459.0,418.0
1034,1684923411466,416.0,417.0
1035,1684923411466,442.0,419.0
1036,1684923411466,449.0,465.0
1037,1684923411466,421.0,395.0
1038,1684923411466,408.0,447.0
1039,1684923411466,406.0,431.0
1040,1684923411466,440.0,471.0
1041,1684923411466,433.0,434.0
1042,1684923411466,430.0,451.0
1043,1684923411466,455.0,470.0
1044,1684923411466,433.0,427.0
1045,1684923411466,454.0,444.0
1046,1684923411466,443.0,433.0
1047,1684923411466,453.0,447.0
1048,1684923411466,452.0,404.0
1049,1684923411466,423.0,422.0
1050,1684923411466,449.0,423.0
1051,1684923411466,435.0,434.0
1052,1684923411466,416.0,379.0
1053,1684923411466,414.0,462.0
1054,1684923411466,421.0,432.0
1055,1684923411466,431.0,451.0
1056,1684923411466,417.0,414.0
1057,1684923411466,430.0,463.0
1058,1684923411466,458.0,470.0
1059,1684923411466,431.0,433.0
1060,1684923411466,457.0,452.0
1061,1684923411466,442.0,437.0
1062,1684923411466,458.0,442.0
1063,1684923411466,442.0,408.0
1064,1684923411466,424.0,432.0
1065,1684923411466,457.0,422.0
1066,1684923411466,419.0,420.0
1067,1684923411466,416.0,406.0
1068,1684923411466,429.0,485.0
1069,1684923411466,421.0,421.0
1070,1684923411466,422.0,440.0
1071,1684923411466,404.0,416.0
1072,1684923411466,433.0,473.0
1073,1684923411466,454.0,468.0
1074,1684923411466,430.0,442.0
1075,1684923411466,455.0,458.0
1076,1684923411466,439.0,432.0
1077,1684923411466,458.0,437.0
1078,1684923411466,440.0,417.0
1079,1684923411466,436.0,449.0
1080,1684923411466,455.0,420.0
1081,1684923411466,413.0,414.0
1082,1684923411466,434.0,419.0
1083,1684923411466,446.0,486.0
1084,1684923411466,424.0,403.0
1085,1684923411466,411.0,443.0
1086,1684923411466,405.0,430.0
1087,1684923411466,442.0,481.0
1088,1684923411466,444.0,441.0
1089,1684923411466,429.0,449.0
1090,1684923411466,460.0,464.0
1091,1684923411466,428.0,427.0
1092,1684923411466,450.0,439.0
1093,1684923411466,440.0,424.0
1094,1684923411466,452.0,448.0
1095,1684923411466,455.0,408.0
1096,1684923411466,414.0,423.0
1097,1684923411466,455.0,427.0
1098,1684923411466,438.0,446.0
1099,1684923411466,418.0,384.0
1100,1684923411466,408.0,457.0
1101,1684923411466,413.0,432.0
1102,1684923411466,435.0,462.0
1103,1684923411466,419.0,420.0
1104,1684923411466,430.0,457.0
1105,1684923411466,456.0,471.0
1106,1684923411466,430.0,426.0
1107,1684923411466,458.0,449.0
1108,1684923411466,443.0,435.0
1109,1684923411466,454.0,443.0
1110,1684923411466,445.0,405.0
1111,1684923411466,423.0,422.0
1112,1684923411466,461.0,426.0
1113,1684923411466,422.0,424.0
1114,1684923411466,411.0,390.0
1115,1684923411466,421.0,480.0
1116,1684923411466,425.0,428.0
1117,1684923411466,420.0,444.0
1118,1684923411466,403.0,411.0
1119,1684923411466,433.0,470.0
1120,1684923411466,451.0,472.0
1121,1684923411466,430.0,436.0
1122,1684923411466,457.0,459.0
1123,1684923411466,445.0,432.0
1124,1684923411466,456.0,437.0
1125,1684923411466,445.0,412.0
1126,1684923411466,434.0,445.0
1127,1684923411466,467.0,419.0
1128,1684923411466,424.0,414.0
1129,1684923411466,429.0,412.0
1130,1684923411466,436.0,494.0
1131,1684923411466,421.0,407.0
1132,1684923411466,408.0,439.0
1133,1684923411466,398.0,424.0
1134,1684923411466,442.0,483.0
1135,1684923411466,444.0,453.0
1136,1684923411466,423.0,446.0
1137,1684923411466,458.0,463.0
1138,1684923411466,436.0,430.0
1139,1684923411466,453.0,438.0
1140,1684923411466,437.0,418.0
1141,1684923411466,441.0,446.0
1142,1684923411466,463.0,414.0
1143,1684923411466,414.0,413.0
1144,1684923411466,445.0,419.0
1145,1684923411466,448.0,461.0
1146,1684923411466,419.0,388.0
1147,1684923411466,411.0,453.0
1148,1684923411466,416.0,436.0
1149,1684923411466,443.0,480.0
1150,1684923411466,429.0,428.0
1151,1684923411466,430.0,451.0
1152,1684923411466,453.0,470.0
1153,1684923411466,433.0,420.0
1154,1684923411466,452.0,444.0
1155,1684923411466,439.0,428.0
1156,1684923411466,456.0,445.0
1157,1684923411466,448.0,402.0
1158,1684923411466,417.0,424.0
1159,1684923411466,458.0,425.0
1160,1684923411466,430.0,430.0
1161,1684923411466,416.0,378.0
1162,1684923411466,416.0,470.0
1163,1684923411466,419.0,433.0
1164,1684923411466,429.0,449.0
1165,1684923411466,405.0,407.0
1166,1684923411466,433.0,462.0
1167,1684923411466,455.0,469.0
1168,1684923411466,425.0,431.0
1169,1684923411466,450.0,452.0
1170,1684923411466,441.0,435.0
1171,1684923411466,458.0,441.0
1172,1684923411466,441.0,410.0
1173,1684923411466,425.0,439.0
1174,1684923411466,463.0,421.0
1175,1684923411466,420.0,420.0
1176,1684923411466,424.0,406.0
1177,1684923411466,434.0,492.0
1178,1684923411466,426.0,417.0
1179,1684923411466,411.0,437.0
1180,1684923411466,393.0,414.0
1181,1684923411466,433.0,476.0
1182,1684923411466,456.0,464.0
1183,1684923411466,428.0,440.0
1184,1684923411466,451.0,464.0
1185,1684923411466,445.0,433.0
1186,1684923411466,462.0,440.0
1187,1684923411466,439.0,415.0
1188,1684923411466,444.0,446.0
1189,1684923411466,459.0,416.0
1190,1684923411466,412.0,415.0
1191,1684923411466,441.0,420.0
1192,1684923411466,449.0,482.0
1193,1684923411466,423.0,395.0
1194,1684923411466,404.0,446.0
1195,1684923411466,409.0,434.0
1196,1684923411466,441.0,485.0
1197,1684923411466,437.0,436.0
1198,1684923411466,432.0,451.0
1199,1684923411466,458.0,467.0
1200,1684923411466,433.0,424.0
1201,1684923411466,455.0,439.0
1202,1684923411466,440.0,423.0
1203,1684923411466,457.0,445.0
1204,1684923411466,449.0,400.0
1205,1684923411466,417.0,420.0
1206,1684923411466,452.0,425.0
1207,1684923411466,437.0,439.0
1208,1684923411466,412.0,381.0
1209,1684923411466,412.0,463.0
1210,1684923411466,420.0,438.0
1211,1684923411466,440.0,462.0
1212,1684923411466,414.0,412.0
1213,1684923411466,433.0,457.0
1214,1684923411466,462.0,473.0
1215,1684923411466,427.0,427.0
1216,1684923411466,452.0,447.0
1217,1684923411466,439.0,431.0
1218,1684923411466,456.0,443.0
1219,1684923411466,453.0,407.0
1220,1684923411466,421.0,430.0
1221,1684923411466,469.0,423.0
1222,1684923411466,424.0,421.0
1223,1684923411466,411.0,398.0
1224,1684923411466,422.0,487.0
1225,1684923411466,426.0,422.0
1226,1684923411466,414.0,439.0
1227,1684923411466,403.0,408.0
1228,1684923411466,433.0,474.0
1229,1684923411466,455.0,469.0
1230,1684923411466,418.0,435.0
1231,1684923411466,456.0,459.0
1232,1684923411466,440.0,430.0
1233,1684923411466,461.0,438.0
1234,1684923411466,445.0,413.0
1235,1684923411466,438.0,450.0
1236,1684923411466,462.0,416.0
1237,1684923411466,417.0,413.0
1238,1684923411466,438.0,416.0
1239,1684923411466,443.0,494.0
1240,1684923411466,418.0,403.0
1241,1684923411466,408.0,444.0
1242,1684923411466,403.0,428.0
1243,1684923411466,438.0,486.0
1244,1684923411466,443.0,441.0
1245,1684923411466,426.0,449.0
1246,1684923411466,460.0,466.0
1247,1684923411466,439.0,424.0
1248,1684923411466,456.0,440.0
1249,1684923411466,434.0,420.0
1250,1684923411466,450.0,447.0
1251,1684923411466,458.0,405.0
1252,1684923411466,417.0,422.0
1253,1684923411466,451.0,416.0
1254,1684923411466,442.0,447.0
1255,1684923411466,416.0,381.0
1256,1684923411466,404.0,459.0
1257,1684923411466,414.0,438.0
1258,1684923411466,437.0,475.0
1259,1684923411466,421.0,417.0
1260,1684923411466,429.0,457.0
1261,1684923411466,458.0,474.0
1262,1684923411466,431.0,423.0
1263,1684923411466,449.0,447.0
1264,1684923411466,444.0,430.0
1265,1684923411466,457.0,442.0
1266,1684923411466,445.0,402.0
1267,1684923411466,425.0,422.0
1268,1684923411466,462.0,425.0
1269,1684923411466,423.0,424.0
1270,1684923411466,409.0,386.0
1271,1684923411466,415.0,483.0
1272,1684923411466,426.0,431.0
1273,1684923411466,422.0,445.0
1274,1684923411466,404.0,408.0
1275,1684923411466,430.0,470.0
1276,1684923411470,455.0,471.0
1277,1684923411470,423.0,434.0
1278,1684923411470,451.0,456.0
1279,1684923411470,439.0,430.0
1280,1684923411470,461.0,439.0
1281,1684923411470,441.0,409.0
1282,1684923411470,431.0,446.0
1283,1684923411470,465.0,419.0
1284,1684923411470,421.0,416.0
1285,1684923411470,422.0,414.0
1286,1684923411470,435.0,498.0
1287,1684923411470,426.0,406.0
1288,1684923411470,412.0,440.0
1289,1684923411470,391.0,424.0
1290,1684923411470,435.0,490.0
1291,1684923411470,448.0,452.0
1292,1684923411470,424.0,444.0
1293,1684923411470,457.0,463.0
1294,1684923411470,438.0,428.0
1295,1684923411470,457.0,439.0
1296,1684923411470,438.0,417.0
1297,1684923411470,448.0,449.0
1298,1684923411470,461.0,412.0
1299,1684923411470,412.0,414.0
1300,1684923411470,445.0,418.0
1301,1684923411470,448.0,464.0
1302,1684923411470,422.0,385.0
1303,1684923411470,405.0,452.0
1304,1684923411470,407.0,440.0
1305,1684923411470,442.0,481.0
1306,1684923411470,425.0,426.0
1307,1684923411470,424.0,454.0
1308,1684923411470,454.0,474.0
1309,1684923411470,436.0,421.0
1310,1684923411470,456.0,444.0
1311,1684923411470,436.0,426.0
1312,1684923411470,456.0,444.0
1313,1684923411470,447.0,397.0
1314,1684923411470,418.0,421.0
1315,1684923411470,459.0,423.0
1316,1684923411470,432.0,430.0
1317,1684923411470,413.0,375.0
1318,1684923411470,417.0,477.0
1319,1684923411470,420.0,436.0
1320,1684923411470,432.0,449.0
1321,1684923411470,404.0,407.0
1322,1684923411470,428.0,468.0
1323,1684923411470,453.0,472.0
1324,1684923411470,424.0,427.0
1325,1684923411470,459.0,455.0
1326,1684923411470,441.0,433.0
1327,1684923411470,461.0,442.0
1328,1684923411470,447.0,404.0
1329,1684923411470,427.0,437.0
1330,1684923411470,464.0,424.0
1331,1684923411470,420.0,418.0
1332,1684923411470,421.0,402.0
1333,1684923411470,428.0,497.0
1334,1684923411470,420.0,414.0
1335,1684923411470,409.0,436.0
1336,1684923411470,390.0,414.0
1337,1684923411470,433.0,482.0
1338,1684923411470,452.0,462.0
1339,1684923411470,421.0,439.0
1340,1684923411470,457.0,461.0
1341,1684923411470,444.0,431.0
1342,1684923411470,458.0,439.0
1343,1684923411470,438.0,415.0
1344,1684923411470,446.0,448.0
1345,1684923411470,466.0,414.0
1346,1684923411470,413.0,415.0
1347,1684923411470,436.0,420.0
1348,1684923411470,451.0,482.0
1349,1684923411470,419.0,393.0
1350,1684923411470,401.0,448.0
1351,1684923411470,405.0,440.0
1352,1684923411470,443.0,491.0
1353,1684923411470,437.0,430.0
1354,1684923411470,430.0,452.0
1355,1684923411470,458.0,472.0
1356,1684923411470,434.0,422.0
1357,1684923411470,454.0,441.0
1358,1684923411470,439.0,424.0
1359,1684923411470,456.0,446.0
1360,1684923411470,458.0,398.0
1361,1684923411470,413.0,420.0
1362,1684923411470,456.0,422.0
1363,1684923411470,436.0,439.0
1364,1684923411470,412.0,372.0
1365,1684923411470,411.0,467.0
1366,1684923411470,415.0,441.0
1367,1684923411470,437.0,459.0
1368,1684923411470,409.0,410.0
1369,1684923411470,425.0,460.0
1370,1684923411470,461.0,474.0
1371,1684923411470,429.0,424.0
1372,1684923411470,451.0,448.0
1373,1684923411470,440.0,431.0
1374,1684923411470,465.0,446.0
1375,1684923411470,442.0,405.0
1376,1684923411470,424.0,431.0
1377,1684923411470,458.0,419.0
1378,1684923411470,425.0,421.0
1379,1684923411470,410.0,398.0
1380,1684923411470,427.0,493.0
1381,1684923411470,421.0,422.0
1382,1684923411470,414.0,438.0
1383,1684923411470,394.0,411.0
1384,1684923411470,430.0,480.0
1385,1684923411470,452.0,469.0
1386,1684923411470,425.0,436.0
1387,1684923411470,459.0,460.0
1388,1684923411470,439.0,430.0
1389,1684923411470,457.0,439.0
1390,1684923411470,443.0,413.0
1391,1684923411470,438.0,448.0
1392,1684923411470,463.0,419.0
1393,1684923411470,415.0,409.0
1394,1684923411470,439.0,417.0
1395,1684923411470,445.0,497.0
1396,1684923411470,422.0,400.0
1397,1684923411470,406.0,442.0
1398,1684923411470,394.0,431.0
1399,1684923411470,440.0,489.0
1400,1684923411470,442.0,441.0
1401,1684923411470,431.0,447.0
1402,1684923411470,460.0,469.0
1403,1684923411470,436.0,425.0
1404,1684923411470,456.0,440.0
1405,1684923411470,434.0,419.0
1406,1684923411470,451.0,446.0
1407,1684923411470,458.0,402.0
1408,1684923411470,412.0,419.0
1409,1684923411470,448.0,420.0
1410,1684923411470,440.0,447.0
1411,1684923411470,419.0,379.0
1412,1684923411470,406.0,461.0
1413,1684923411470,416.0,441.0
1414,1684923411470,441.0,469.0
1415,1684923411470,419.0,415.0
1416,1684923411470,430.0,457.0
1417,1684923411470,459.0,475.0
1418,1684923411470,431.0,424.0
1419,1684923411470,456.0,447.0
1420,1684923411470,438.0,431.0
1421,1684923411470,455.0,444.0
1422,1684923411470,444.0,404.0
1423,1684923411470,421.0,427.0
1424,1684923411470,458.0,428.0
1425,1684923411470,423.0,422.0
1426,1684923411470,412.0,394.0
1427,1684923411470,420.0,479.0
1428,1684923411470,425.0,427.0
1429,1684923411470,424.0,446.0
1430,1684923411470,398.0,409.0
1431,1684923411470,430.0,473.0
1432,1684923411470,453.0,472.0
1433,1684923411470,423.0,436.0
1434,1684923411470,454.0,455.0
1435,1684923411470,440.0,433.0
1436,1684923411470,456.0,438.0
1437,1684923411470,442.0,410.0
1438,1684923411470,431.0,449.0
1439,1684923411470,458.0,414.0
1440,1684923411470,423.0,412.0
1441,1684923411470,425.0,417.0
1442,1684923411470,446.0,493.0
1443,1684923411470,427.0,405.0
1444,1684923411470,404.0,439.0
1445,1684923411470,402.0,425.0
1446,1684923411470,434.0,488.0
1447,1684923411470,445.0,446.0
1448,1684923411470,427.0,448.0
1449,1684923411470,453.0,464.0
1450,1684923411470,439.0,429.0
1451,1684923411470,458.0,438.0
1452,1684923411470,443.0,422.0
1453,1684923411470,451.0,447.0
1454,1684923411470,460.0,409.0
1455,1684923411470,414.0,413.0
1456,1684923411470,448.0,416.0
1457,1684923411470,447.0,453.0
1458,1684923411470,417.0,384.0
1459,1684923411470,406.0,459.0
1460,1684923411470,413.0,437.0
1461,1684923411470,440.0,475.0
1462,1684923411470,426.0,425.0
1463,1684923411470,427.0,458.0
1464,1684923411470,459.0,474.0
1465,1684923411470,424.0,423.0
1466,1684923411470,456.0,444.0
1467,1684923411470,438.0,430.0
1468,1684923411470,454.0,441.0
1469,1684923411470,447.0,399.0
1470,1684923411470,420.0,423.0
1471,1684923411470,460.0,423.0
1472,1684923411470,427.0,426.0
1473,1684923411470,407.0,382.0
1474,1684923411470,420.0,482.0
1475,1684923411470,421.0,431.0
1476,1684923411470,427.0,450.0
1477,1684923411470,401.0,407.0
1478,1684923411470,434.0,473.0
1479,1684923411470,458.0,472.0
1480,1684923411470,423.0,432.0
1481,1684923411470,458.0,455.0
1482,1684923411470,444.0,430.0
1483,1684923411470,460.0,438.0
1484,1684923411470,442.0,409.0
1485,1684923411470,433.0,443.0
1486,1684923411470,466.0,420.0
1487,1684923411470,418.0,416.0
1488,1684923411470,424.0,408.0
1489,1684923411470,434.0,497.0
1490,1684923411470,427.0,411.0
1491,1684923411470,410.0,439.0
1492,1684923411470,401.0,423.0
1493,1684923411470,435.0,485.0
1494,1684923411470,445.0,454.0
1495,1684923411470,426.0,444.0
1496,1684923411470,455.0,464.0
1497,1684923411470,436.0,432.0
1498,1684923411470,462.0,437.0
1499,1684923411470,437.0,415.0
1500,1684923411470,449.0,447.0
1501,1684923411470,463.0,412.0
1502,1684923411470,415.0,416.0
1503,1684923411470,444.0,421.0
1504,1684923411470,446.0,464.0
1505,1684923411470,421.0,390.0
1506,1684923411470,403.0,452.0
1507,1684923411470,408.0,439.0
1508,1684923411470,446.0,485.0
1509,1684923411470,427.0,425.0
1510,1684923411470,428.0,454.0
1511,1684923411470,453.0,474.0
1512,1684923411470,432.0,425.0
1513,1684923411470,454.0,442.0
1514,1684923411470,443.0,427.0
1515,1684923411470,454.0,445.0
1516,1684923411470,448.0,397.0
1517,1684923411470,420.0,420.0
1518,1684923411470,456.0,426.0
1519,1684923411470,428.0,429.0
1520,1684923411470,413.0,371.0
1521,1684923411470,409.0,473.0
1522,1684923411470,422.0,438.0
1523,1684923411470,433.0,453.0
1524,1684923411470,403.0,408.0
1525,1684923411470,429.0,468.0
1526,1684923411470,457.0,471.0
1527,1684923411470,427.0,429.0
1528,1684923411470,455.0,453.0
1529,1684923411470,442.0,433.0
1530,1684923411470,461.0,440.0
1531,1684923411470,441.0,402.0
1532,1684923411470,427.0,438.0
1533,1684923411470,462.0,421.0
1534,1684923411470,424.0,416.0
1535,1684923411470,426.0,409.0
1536,1684923411470,430.0,494.0
1537,1684923411470,427.0,417.0
1538,1684923411470,413.0,436.0
1539,1684923411470,391.0,417.0
1540,1684923411470,441.0,484.0
1541,1684923411470,448.0,461.0
1542,1684923411470,424.0,440.0
1543,1684923411470,463.0,465.0
1544,1684923411470,441.0,429.0
1545,1684923411470,455.0,436.0
1546,1684923411470,438.0,414.0
1547,1684923411470,442.0,446.0
1548,1684923411470,460.0,418.0
1549,1684923411470,414.0,413.0
1550,1684923411470,437.0,420.0
1551,1684923411470,447.0,480.0
1552,1684923411470,422.0,392.0
1553,1684923411470,404.0,445.0
1554,1684923411470,404.0,435.0
1555,1684923411470,439.0,485.0
1556,1684923411470,436.0,430.0
1557,1684923411470,430.0,456.0
1558,1684923411470,458.0,469.0
1559,1684923411470,436.0,425.0
1560,1684923411470,455.0,441.0
1561,1684923411470,438.0,427.0
1562,1684923411470,455.0,444.0
1563,1684923411470,451.0,398.0
1564,1684923411470,420.0,424.0
1565,1684923411470,450.0,420.0
1566,1684923411470,435.0,432.0
1567,1684923411470,415.0,376.0
1568,1684923411470,413.0,465.0
1569,1684923411470,422.0,438.0
1570,1684923411470,434.0,458.0
1571,1684923411470,410.0,410.0
1572,1684923411470,429.0,462.0
1573,1684923411470,459.0,471.0
1574,1684923411470,427.0,432.0
1575,1684923411470,452.0,447.0
1576,1684923411470,447.0,433.0
1577,1684923411470,457.0,442.0
1578,1684923411470,444.0,404.0
1579,1684923411470,425.0,430.0
1580,1684923411470,456.0,421.0
1581,1684923411470,419.0,420.0
1582,1684923411470,417.0,404.0
1583,1684923411470,429.0,491.0
1584,1684923411470,428.0,423.0
1585,1684923411470,416.0,441.0
1586,1684923411470,399.0,411.0
1587,1684923411470,435.0,476.0
1588,1684923411470,454.0,464.0
1589,1684923411470,430.0,441.0
1590,1684923411470,455.0,455.0
1591,1684923411470,436.0,431.0
1592,1684923411470,454.0,436.0
1593,1684923411470,445.0,418.0
1594,1684923411470,441.0,450.0
1595,1684923411470,460.0,418.0
1596,1684923411470,417.0,416.0
1597,1684923411470,439.0,420.0
1598,1684923411470,444.0,484.0
1599,1684923411470,425.0,399.0
1600,1684923411470,409.0,442.0
1601,1684923411470,406.0,429.0
1602,1684923411470,443.0,484.0
1603,1684923411470,435.0,438.0
1604,1684923411470,428.0,452.0
1605,1684923411470,456.0,466.0
1606,1684923411470,434.0,429.0
1607,1684923411470,453.0,441.0
1608,1684923411470,433.0,427.0
1609,1684923411470,453.0,446.0
1610,1684923411470,457.0,404.0
1611,1684923411470,415.0,420.0
1612,1684923411470,449.0,424.0
1613,1684923411470,440.0,441.0
1614,1684923411470,414.0,379.0
1615,1684923411470,414.0,463.0
1616,1684923411470,418.0,434.0
1617,1684923411470,433.0,463.0
1618,1684923411470,416.0,418.0
1619,1684923411470,428.0,462.0
1620,1684923411470,458.0,477.0
1621,1684923411470,430.0,430.0
1622,1684923411470,456.0,446.0
1623,1684923411470,442.0,433.0
1624,1684923411470,457.0,443.0
1625,1684923411470,441.0,402.0
1626,1684923411470,423.0,425.0
1627,1684923411470,461.0,426.0
1628,1684923411470,425.0,421.0
1629,1684923411470,413.0,399.0
1630,1684923411470,428.0,484.0
1631,1684923411470,420.0,425.0
1632,1684923411470,417.0,442.0
1633,1684923411470,406.0,412.0
1634,1684923411470,431.0,474.0
1635,1684923411470,456.0,467.0
1636,1684923411470,427.0,439.0
1637,1684923411470,458.0,455.0
1638,1684923411470,441.0,429.0
1639,1684923411470,452.0,435.0
1640,1684923411470,443.0,414.0
1641,1684923411470,435.0,446.0
1642,1684923411470,461.0,417.0
1643,1684923411470,414.0,415.0
1644,1684923411470,428.0,419.0
1645,1684923411470,443.0,491.0
1646,1684923411470,425.0,405.0
1647,1684923411470,409.0,442.0
1648,1684923411470,405.0,429.0
1649,1684923411470,434.0,484.0
1650,1684923411470,435.0,444.0
1651,1684923411470,426.0,451.0
1652,1684923411470,457.0,466.0
1653,1684923411470,436.0,429.0
1654,1684923411470,453.0,439.0
1655,1684923411470,438.0,423.0
1656,1684923411470,448.0,447.0
1657,1684923411470,458.0,408.0
1658,1684923411470,418.0,420.0
1659,1684923411470,451.0,419.0
1660,1684923411470,440.0,444.0
1661,1684923411470,416.0,383.0
1662,1684923411470,408.0,458.0
1663,1684923411470,411.0,436.0
1664,1684923411470,435.0,468.0
1665,1684923411470,426.0,423.0
1666,1684923411470,428.0,460.0
1667,1684923411470,459.0,475.0
1668,1684923411470,430.0,424.0
1669,1684923411470,455.0,447.0
1670,1684923411470,442.0,431.0
1671,1684923411470,460.0,442.0
1672,1684923411470,447.0,403.0
1673,1684923411470,420.0,424.0
1674,1684923411470,458.0,424.0
1675,1684923411470,429.0,424.0
1676,1684923411470,413.0,389.0
1677,1684923411470,421.0,481.0
1678,1684923411470,426.0,428.0
1679,1684923411470,425.0,442.0
1680,1684923411470,403.0,411.0
1681,1684923411470,434.0,473.0
1682,1684923411470,452.0,468.0
1683,1684923411470,424.0,437.0
1684,1684923411470,457.0,459.0
1685,1684923411470,441.0,434.0
1686,1684923411470,455.0,436.0
1687,1684923411470,444.0,414.0
1688,1684923411470,434.0,444.0
1689,1684923411470,464.0,420.0
1690,1684923411470,422.0,415.0
1691,1684923411470,431.0,416.0
1692,1684923411470,443.0,494.0
1693,1684923411470,428.0,405.0
1694,1684923411470,407.0,438.0
1695,1684923411470,401.0,426.0
1696,1684923411470,437.0,487.0
1697,1684923411470,447.0,448.0
1698,1684923411470,429.0,449.0
1699,1684923411470,458.0,465.0
1700,1684923411470,437.0,431.0
1701,1684923411470,454.0,438.0
1702,1684923411470,438.0,418.0
1703,1684923411470,447.0,442.0
1704,1684923411470,466.0,411.0
1705,1684923411470,415.0,419.0
1706,1684923411470,451.0,419.0
1707,1684923411470,445.0,456.0
1708,1684923411470,415.0,383.0
1709,1684923411470,404.0,455.0
1710,1684923411470,414.0,438.0
1711,1684923411470,441.0,474.0
1712,1684923411470,423.0,423.0
1713,1684923411470,431.0,457.0
1714,1684923411470,454.0,472.0
1715,1684923411470,430.0,429.0
1716,1684923411470,457.0,444.0
1717,1684923411470,443.0,429.0
1718,1684923411470,458.0,441.0
1719,1684923411470,447.0,401.0
1720,1684923411470,422.0,421.0
1721,1684923411470,455.0,423.0
1722,1684923411470,426.0,424.0
1723,1684923411470,408.0,381.0
1724,1684923411470,419.0,479.0
1725,1684923411470,419.0,432.0
1726,1684923411470,428.0,446.0
1727,1684923411470,403.0,410.0
1728,1684923411470,425.0,469.0
1729,1684923411470,456.0,469.0
1730,1684923411470,426.0,434.0
1731,1684923411470,452.0,453.0
1732,1684923411470,441.0,434.0
1733,1684923411470,458.0,440.0
1734,1684923411470,439.0,411.0
1735,1684923411470,432.0,444.0
1736,1684923411470,466.0,418.0
1737,1684923411470,417.0,418.0
1738,1684923411470,429.0,409.0
1739,1684923411470,438.0,494.0
1740,1684923411470,422.0,411.0
1741,1684923411470,413.0,439.0
1742,1684923411470,394.0,419.0
1743,1684923411470,438.0,480.0
1744,1684923411470,451.0,455.0
1745,1684923411470,429.0,448.0
1746,1684923411470,458.0,464.0
1747,1684923411470,432.0,432.0
1748,1684923411470,458.0,436.0
1749,1684923411470,443.0,417.0
1750,1684923411470,443.0,447.0
1751,1684923411470,461.0,413.0
1752,1684923411470,414.0,419.0
1753,1684923411470,448.0,419.0
1754,1684923411470,447.0,460.0
1755,1684923411470,417.0,387.0
1756,1684923411470,402.0,452.0
1757,1684923411470,413.0,435.0
1758,1684923411470,444.0,478.0
1759,1684923411470,432.0,427.0
1760,1684923411470,426.0,455.0
1761,1684923411470,457.0,474.0
1762,1684923411470,434.0,427.0
1763,1684923411470,456.0,442.0
1764,1684923411470,438.0,428.0
1765,1684923411470,457.0,443.0
1766,1684923411470,448.0,399.0
1767,1684923411470,420.0,422.0
1768,1684923411470,456.0,422.0
1769,1684923411470,431.0,429.0
1770,1684923411470,411.0,379.0
1771,1684923411470,423.0,473.0
1772,1684923411470,421.0,432.0
1773,1684923411470,430.0,449.0
1774,1684923411470,409.0,412.0
1775,1684923411470,429.0,468.0
1776,1684923411470,453.0,470.0
1777,1684923411470,429.0,436.0
1778,1684923411470,459.0,456.0
1779,1684923411470,443.0,436.0
1780,1684923411470,464.0,437.0
1781,1684923411470,440.0,406.0
1782,1684923411470,430.0,438.0
1783,1684923411470,461.0,417.0
1784,1684923411470,419.0,418.0
1785,1684923411470,426.0,406.0
1786,1684923411470,437.0,493.0
1787,1684923411470,427.0,417.0
1788,1684923411470,411.0,441.0
1789,1684923411470,399.0,423.0
1790,1684923411470,435.0,484.0
1791,1684923411470,451.0,457.0
1792,1684923411470,428.0,445.0
1793,1684923411470,457.0,461.0
1794,1684923411470,438.0,428.0
1795,1684923411470,457.0,436.0
1796,1684923411470,444.0,417.0
1797,1684923411470,449.0,450.0
1798,1684923411470,459.0,419.0
1799,1684923411470,417.0,418.0
1800,1684923411470,445.0,421.0
1801,1684923411470,445.0,463.0
1802,1684923411470,424.0,393.0
1803,1684923411470,410.0,454.0
1804,1684923411470,405.0,434.0
1805,1684923411470,439.0,485.0
1806,1684923411470,434.0,431.0
1807,1684923411470,427.0,454.0
1808,1684923411470,455.0,469.0
1809,1684923411470,433.0,427.0
1810,1684923411470,455.0,444.0
1811,1684923411470,437.0,429.0
1812,1684923411470,455.0,444.0
1813,1684923411470,451.0,400.0
1814,1684923411470,420.0,420.0
1815,1684923411470,457.0,427.0
1816,1684923411470,436.0,429.0
1817,1684923411470,414.0,377.0
1818,1684923411470,416.0,470.0
1819,1684923411470,419.0,434.0
1820,1684923411470,430.0,451.0
1821,1684923411470,414.0,408.0
1822,1684923411470,429.0,466.0
1823,1684923411470,454.0,472.0
1824,1684923411470,429.0,432.0
1825,1684923411470,453.0,455.0
1826,1684923411470,440.0,433.0
1827,1684923411470,459.0,438.0
1828,1684923411470,440.0,406.0
1829,1684923411470,422.0,436.0
1830,1684923411470,460.0,418.0
1831,1684923411470,419.0,417.0
1832,1684923411470,422.0,405.0
1833,1684923411470,436.0,491.0
1834,1684923411470,428.0,416.0
1835,1684923411470,419.0,440.0
1836,1684923411470,395.0,415.0
1837,1684923411470,428.0,480.0
1838,1684923411470,449.0,461.0
1839,1684923411470,428.0,443.0
1840,1684923411470,458.0,465.0
1841,1684923411470,441.0,434.0
1842,1684923411470,458.0,434.0
1843,1684923411470,443.0,416.0
1844,1684923411470,448.0,446.0
1845,1684923411470,466.0,418.0
1846,1684923411470,409.0,415.0
1847,1684923411470,440.0,418.0
1848,1684923411470,447.0,474.0
1849,1684923411470,423.0,391.0
1850,1684923411470,405.0,448.0
1851,1684923411470,406.0,434.0
1852,1684923411470,439.0,486.0
1853,1684923411470,434.0,432.0
1854,1684923411470,426.0,455.0
1855,1684923411470,456.0,472.0
1856,1684923411470,432.0,425.0
1857,1684923411470,460.0,442.0
1858,1684923411470,438.0,426.0
1859,1684923411470,453.0,443.0
1860,1684923411470,453.0,398.0
1861,1684923411470,417.0,420.0
1862,1684923411470,454.0,424.0
1863,1684923411470,434.0,434.0
1864,1684923411470,413.0,373.0
1865,1684923411470,409.0,469.0
1866,1684923411470,421.0,437.0
1867,1684923411470,431.0,458.0
1868,1684923411470,415.0,411.0
1869,1684923411470,426.0,467.0
1870,1684923411470,456.0,472.0
1871,1684923411470,427.0,426.0
1872,1684923411470,453.0,446.0
1873,1684923411470,437.0,431.0
1874,1684923411470,464.0,441.0
1875,1684923411470,443.0,404.0
1876,1684923411470,425.0,436.0
1877,1684923411470,463.0,423.0
1878,1684923411470,420.0,421.0
1879,1684923411470,420.0,406.0
1880,1684923411470,430.0,492.0
1881,1684923411470,427.0,419.0
1882,1684923411470,414.0,443.0
1883,1684923411470,395.0,409.0
1884,1684923411470,433.0,480.0
1885,1684923411470,449.0,462.0
1886,1684923411470,426.0,438.0
1887,1684923411470,456.0,459.0
1888,1684923411470,439.0,432.0
1889,1684923411470,460.0,438.0
1890,1684923411470,445.0,416.0
1891,1684923411470,446.0,450.0
1892,1684923411470,466.0,416.0
1893,1684923411470,417.0,412.0
1894,1684923411470,439.0,418.0
1895,1684923411470,452.0,484.0
1896,1684923411470,423.0,392.0
1897,1684923411470,402.0,446.0
1898,1684923411470,398.0,433.0
1899,1684923411470,443.0,487.0
1900,1684923411470,427.0,432.0
1901,1684923411470,427.0,454.0
1902,1684923411470,456.0,470.0
1903,1684923411470,437.0,427.0
1904,1684923411470,458.0,442.0
1905,1684923411470,442.0,422.0
1906,1684923411470,455.0,447.0
1907,1684923411470,458.0,398.0
1908,1684923411470,413.0,420.0
1909,1684923411470,455.0,420.0
1910,1684923411470,433.0,438.0
1911,1684923411470,411.0,373.0
1912,1684923411470,408.0,468.0
1913,1684923411470,414.0,439.0
1914,1684923411470,437.0,465.0
1915,1684923411470,411.0,414.0
1916,1684923411470,429.0,462.0
1917,1684923411470,452.0,474.0
1918,1684923411470,427.0,426.0
1919,1684923411470,455.0,450.0
1920,1684923411470,441.0,430.0
1921,1684923411470,460.0,441.0
1922,1684923411470,443.0,401.0
1923,1684923411470,421.0,430.0
1924,1684923411470,458.0,423.0
1925,1684923411470,422.0,422.0
1926,1684923411470,416.0,401.0
1927,1684923411470,427.0,493.0
1928,1684923411470,429.0,422.0
1929,1684923411470,414.0,442.0
1930,1684923411470,392.0,408.0
1931,1684923411470,429.0,476.0
1932,1684923411470,445.0,466.0
1933,1684923411470,423.0,438.0
1934,1684923411470,455.0,460.0
1935,1684923411470,432.0,429.0
1936,1684923411470,455.0,436.0
1937,1684923411470,440.0,410.0
1938,1684923411470,444.0,449.0
1939,1684923411470,460.0,417.0
1940,1684923411470,419.0,412.0
1941,1684923411470,439.0,421.0
1942,1684923411470,447.0,489.0
1943,1684923411470,423.0,399.0
1944,1684923411470,408.0,444.0
1945,1684923411470,399.0,429.0
1946,1684923411470,442.0,490.0
1947,1684923411470,437.0,440.0
1948,1684923411470,429.0,450.0
1949,1684923411470,457.0,468.0
1950,1684923411470,433.0,428.0
1951,1684923411470,457.0,437.0
1952,1684923411470,442.0,424.0
1953,1684923411470,457.0,446.0
1954,1684923411470,460.0,401.0
1955,1684923411470,415.0,419.0
1956,1684923411470,456.0,421.0
1957,1684923411470,439.0,438.0
1958,1684923411470,419.0,375.0
1959,1684923411470,404.0,460.0
1960,1684923411470,413.0,438.0
1961,1684923411470,438.0,468.0
1962,1684923411470,421.0,414.0
1963,1684923411470,425.0,459.0
1964,1684923411470,461.0,472.0
1965,1684923411470,431.0,429.0
1966,1684923411470,453.0,446.0
1967,1684923411470,443.0,432.0
1968,1684923411470,460.0,443.0
1969,1684923411470,441.0,400.0
1970,1684923411470,428.0,429.0
1971,1684923411470,461.0,423.0
1972,1684923411470,420.0,419.0
1973,1684923411470,412.0,399.0
1974,1684923411470,426.0,488.0
1975,1684923411470,425.0,424.0
1976,1684923411470,417.0,443.0
1977,1684923411470,393.0,406.0
1978,1684923411470,430.0,476.0
1979,1684923411470,454.0,466.0
1980,1684923411470,425.0,440.0
1981,1684923411470,453.0,460.0
1982,1684923411470,445.0,432.0
1983,1684923411470,458.0,436.0
1984,1684923411470,440.0,412.0
1985,1684923411470,442.0,447.0
1986,1684923411470,462.0,417.0
1987,1684923411470,413.0,411.0
1988,1684923411470,436.0,417.0
1989,1684923411470,440.0,496.0
1990,1684923411470,423.0,399.0
1991,1684923411470,403.0,444.0
1992,1684923411470,396.0,432.0
1993,1684923411470,440.0,491.0
1994,1684923411470,441.0,445.0
1995,1684923411470,424.0,450.0
1996,1684923411470,460.0,468.0
1997,1684923411470,434.0,425.0
1998,1684923411470,456.0,438.0
1999,1684923411470,439.0,419.0
2000,1684923411470,454.0,448.0
2001,1684923411470,462.0,402.0
2002,1684923411470,417.0,417.0
2003,1684923411470,454.0,426.0
2004,1684923411470,443.0,447.0
2005,1684923411470,419.0,378.0
2006,1684923411470,408.0,465.0
2007,1684923411470,413.0,439.0
2008,1684923411470,439.0,467.0
2009,1684923411470,419.0,417.0
2010,1684923411470,426.0,457.0
2011,1684923411470,458.0,471.0
2012,1684923411470,433.0,429.0
2013,1684923411470,450.0,446.0
2014,1684923411470,439.0,428.0
2015,1684923411470,459.0,442.0
2016,1684923411470,446.0,400.0
2017,1684923411470,423.0,424.0
2018,1684923411470,462.0,423.0
2019,1684923411470,428.0,422.0
2020,1684923411470,412.0,398.0
2021,1684923411470,421.0,488.0
2022,1684923411470,421.0,428.0
2023,1684923411470,423.0,444.0
2024,1684923411470,399.0,408.0
2025,1684923411470,432.0,472.0
2026,1684923411470,449.0,470.0
2027,1684923411470,426.0,438.0
2028,1684923411470,455.0,458.0
2029,1684923411470,443.0,434.0
2030,1684923411470,457.0,437.0
2031,1684923411470,440.0,412.0
2032,1684923411470,440.0,450.0
2033,1684923411470,464.0,417.0
2034,1684923411470,415.0,412.0
2035,1684923411470,438.0,413.0
2036,1684923411470,446.0,493.0
2037,1684923411470,424.0,404.0
2038,1684923411470,408.0,443.0
2039,1684923411470,397.0,427.0
2040,1684923411470,437.0,488.0
2041,1684923411470,440.0,445.0
2042,1684923411470,424.0,448.0
2043,1684923411470,456.0,463.0
2044,1684923411470,440.0,430.0
2045,1684923411470,457.0,437.0
2046,1684923411470,445.0,420.0
2047,1684923411470,454.0,446.0
2048,1684923411470,461.0,408.0
2049,1684923411470,417.0,416.0
2050,1684923411470,450.0,421.0
2051,1684923411470,437.0,445.0
2052,1684923411470,419.0,383.0
2053,1684923411470,405.0,460.0
2054,1684923411470,410.0,438.0
2055,1684923411470,442.0,472.0
2056,1684923411470,419.0,421.0
2057,1684923411470,430.0,459.0
2058,1684923411470,459.0,471.0
2059,1684923411470,432.0,429.0
2060,1684923411470,457.0,444.0
2061,1684923411470,438.0,428.0
2062,1684923411470,460.0,441.0
2063,1684923411470,446.0,399.0
2064,1684923411470,419.0,423.0
2065,1684923411470,455.0,425.0
2066,1684923411470,428.0,422.0
2067,1684923411470,415.0,392.0
2068,1684923411470,425.0,485.0
2069,1684923411470,422.0,431.0
2070,1684923411470,421.0,446.0
2071,1684923411470,402.0,408.0
2072,1684923411470,431.0,469.0
2073,1684923411470,456.0,469.0
2074,1684923411470,426.0,436.0
2075,1684923411470,450.0,455.0
2076,1684923411470,436.0,430.0
2077,1684923411470,455.0,436.0
2078,1684923411470,437.0,411.0
2079,1684923411470,437.0,447.0
2080,1684923411470,464.0,421.0
2081,1684923411470,424.0,413.0
2082,1684923411470,431.0,417.0
2083,1684923411470,441.0,494.0
2084,1684923411470,427.0,407.0
2085,1684923411470,413.0,439.0
2086,1684923411470,395.0,422.0
2087,1684923411470,435.0,488.0
2088,1684923411470,442.0,444.0
2089,1684923411470,432.0,451.0
2090,1684923411470,459.0,468.0
2091,1684923411470,442.0,432.0
2092,1684923411470,455.0,438.0
2093,1684923411470,442.0,419.0
2094,1684923411470,452.0,449.0
2095,1684923411470,463.0,408.0
2096,1684923411470,419.0,418.0
2097,1684923411470,450.0,418.0
2098,1684923411470,440.0,449.0
2099,1684923411470,414.0,382.0
2100,1684923411470,405.0,458.0
2101,1684923411470,407.0,439.0
2102,1684923411470,441.0,477.0
2103,1684923411470,420.0,422.0
2104,1684923411470,430.0,458.0
2105,1684923411470,461.0,475.0
2106,1684923411470,432.0,425.0
2107,1684923411470,455.0,446.0
2108,1684923411470,447.0,429.0
2109,1684923411470,457.0,443.0
2110,1684923411470,448.0,401.0
2111,1684923411470,417.0,420.0
2112,1684923411470,456.0,421.0
2113,1684923411470,425.0,423.0
2114,1684923411470,405.0,383.0
2115,1684923411470,419.0,482.0
2116,1684923411470,427.0,432.0
2117,1684923411470,428.0,449.0
2118,1684923411470,400.0,408.0
2119,1684923411470,430.0,474.0
2120,1684923411470,445.0,470.0
2121,1684923411470,429.0,434.0
2122,1684923411470,457.0,457.0
2123,1684923411470,439.0,428.0
2124,1684923411470,459.0,436.0
2125,1684923411470,441.0,408.0
2126,1684923411470,433.0,445.0
2127,1684923411470,467.0,420.0
2128,1684923411470,413.0,413.0
2129,1684923411470,435.0,416.0
2130,1684923411470,441.0,499.0
2131,1684923411470,429.0,411.0
2132,1684923411470,407.0,441.0
2133,1684923411470,398.0,423.0
2134,1684923411470,438.0,488.0
2135,1684923411470,443.0,451.0
2136,1684923411470,424.0,446.0
2137,1684923411470,457.0,465.0
2138,1684923411470,436.0,427.0
2139,1684923411470,456.0,438.0
2140,1684923411470,442.0,417.0
2141,1684923411470,449.0,447.0
2142,1684923411470,465.0,406.0
2143,1684923411470,413.0,416.0
2144,1684923411470,452.0,424.0
2145,1684923411470,447.0,457.0
2146,1684923411470,414.0,382.0
2147,1684923411470,404.0,457.0
2148,1684923411470,415.0,437.0
2149,1684923411470,437.0,477.0
2150,1684923411470,424.0,422.0
2151,1684923411470,429.0,456.0
2152,1684923411470,456.0,473.0
2153,1684923411470,428.0,424.0
2154,1684923411470,455.0,448.0
2155,1684923411470,441.0,428.0
2156,1684923411470,463.0,445.0
2157,1684923411470,449.0,400.0
2158,1684923411470,418.0,421.0
2159,1684923411470,461.0,422.0
2160,1684923411470,425.0,422.0
2161,1684923411470,411.0,379.0
2162,1684923411470,421.0,478.0
2163,1684923411470,421.0,434.0
2164,1684923411470,428.0,450.0
2165,1684923411470,400.0,404.0
2166,1684923411470,430.0,470.0
2167,1684923411470,456.0,471.0
2168,1684923411470,423.0,433.0
2169,1684923411470,458.0,457.0
2170,1684923411470,445.0,434.0
2171,1684923411470,463.0,439.0
2172,1684923411470,441.0,407.0
2173,1684923411470,431.0,445.0
2174,1684923411470,455.0,416.0
2175,1684923411470,420.0,412.0
2176,1684923411470,427.0,412.0
2177,1684923411470,442.0,497.0
2178,1684923411470,428.0,411.0
2179,1684923411470,404.0,441.0
2180,1684923411470,395.0,425.0
2181,1684923411470,434.0,490.0
2182,1684923411470,451.0,454.0
2183,1684923411470,424.0,443.0
2184,1684923411470,455.0,464.0
2185,1684923411470,440.0,427.0
2186,1684923411470,458.0,436.0
2187,1684923411470,438.0,413.0
2188,1684923411470,449.0,446.0
2189,1684923411470,463.0,412.0
2190,1684923411470,413.0,416.0
2191,1684923411470,443.0,418.0
2192,1684923411470,442.0,460.0
2193,1684923411470,419.0,387.0
2194,1684923411470,408.0,455.0
2195,1684923411470,411.0,439.0
2196,1684923411470,443.0,482.0
2197,1684923411470,426.0,423.0
2198,1684923411470,429.0,453.0
2199,1684923411470,456.0,469.0
2200,1684923411470,428.0,422.0
2201,1684923411470,461.0,445.0
2202,1684923411470,441.0,428.0
2203,1684923411470,456.0,445.0
2204,1684923411470,445.0,400.0
2205,1684923411470,426.0,424.0
2206,1684923411470,459.0,425.0
2207,1684923411470,433.0,429.0
2208,1684923411470,414.0,382.0
2209,1684923411470,415.0,480.0
2210,1684923411470,421.0,433.0
2211,1684923411470,421.0,448.0
2212,1684923411470,400.0,403.0
2213,1684923411470,428.0,467.0
2214,1684923411470,454.0,470.0
2215,1684923411470,423.0,433.0
2216,1684923411470,454.0,458.0
2217,1684923411470,441.0,434.0
2218,1684923411470,458.0,439.0
2219,1684923411470,442.0,410.0
2220,1684923411470,432.0,444.0
2221,1684923411470,466.0,416.0
2222,1684923411470,421.0,416.0
2223,1684923411470,427.0,409.0
2224,1684923411470,433.0,495.0
2225,1684923411470,424.0,414.0
2226,1684923411470,408.0,438.0
2227,1684923411470,393.0,421.0
2228,1684923411470,433.0,488.0
2229,1684923411470,449.0,456.0
2230,1684923411470,427.0,447.0
2231,1684923411470,463.0,466.0
2232,1684923411470,438.0,432.0
2233,1684923411470,459.0,436.0
2234,1684923411470,438.0,414.0
2235,1684923411470,452.0,447.0
2236,1684923411470,460.0,410.0
2237,1684923411470,411.0,415.0
2238,1684923411470,446.0,417.0
2239,1684923411470,443.0,460.0
2240,1684923411470,421.0,388.0
2241,1684923411470,401.0,456.0
2242,1684923411470,406.0,442.0
2243,1684923411470,439.0,484.0
2244,1684923411470,427.0,428.0
2245,1684923411470,430.0,456.0
2246,1684923411470,453.0,476.0
2247,1684923411470,435.0,423.0
2248,1684923411470,455.0,442.0
2249,1684923411470,440.0,427.0
2250,1684923411470,459.0,443.0
2251,1684923411470,450.0,396.0
2252,1684923411470,426.0,424.0
2253,1684923411470,451.0,424.0
2254,1684923411470,432.0,428.0
2255,1684923411470,412.0,383.0
2256,1684923411470,413.0,477.0
2257,1684923411470,420.0,434.0
2258,1684923411470,430.0,450.0
2259,1684923411470,406.0,408.0
2260,1684923411470,428.0,467.0
2261,1684923411470,455.0,470.0
2262,1684923411470,424.0,429.0
2263,1684923411470,451.0,454.0
2264,1684923411470,436.0,431.0
2265,1684923411470,460.0,438.0
2266,1684923411470,441.0,408.0
2267,1684923411470,429.0,444.0
2268,1684923411470,466.0,420.0
2269,1684923411470,418.0,419.0
2270,1684923411470,425.0,411.0
2271,1684923411470,429.0,495.0
2272,1684923411470,427.0,414.0
2273,1684923411470,413.0,440.0
2274,1684923411470,393.0,417.0
2275,1684923411470,431.0,488.0
2276,1684923411470,448.0,455.0
2277,1684923411470,419.0,446.0
2278,1684923411470,455.0,468.0
2279,1684923411470,438.0,432.0
2280,1684923411470,464.0,438.0
2281,1684923411470,439.0,415.0
2282,1684923411470,451.0,447.0
2283,1684923411470,460.0,410.0
2284,1684923411470,419.0,413.0
2285,1684923411470,444.0,417.0
2286,1684923411470,445.0,462.0
2287,1684923411470,420.0,388.0
2288,1684923411470,400.0,452.0
2289,1684923411470,405.0,438.0
2290,1684923411470,435.0,483.0
2291,1684923411470,424.0,426.0
2292,1684923411470,429.0,455.0
2293,1684923411470,458.0,476.0
2294,1684923411470,431.0,428.0
2295,1684923411470,458.0,446.0
2296,1684923411470,440.0,426.0
2297,1684923411470,460.0,441.0
2298,1684923411470,446.0,394.0
2299,1684923411470,422.0,419.0
2300,1684923411470,456.0,422.0
2301,1684923411470,427.0,427.0
2302,1684923411470,407.0,378.0
2303,1684923411470,416.0,478.0
2304,1684923411470,414.0,435.0
2305,1684923411470,429.0,454.0
2306,1684923411470,404.0,408.0
2307,1684923411470,432.0,471.0
2308,1684923411470,458.0,475.0
2309,1684923411470,426.0,427.0
2310,1684923411470,456.0,452.0
2311,1684923411470,440.0,429.0
2312,1684923411470,458.0,436.0
2313,1684923411470,441.0,405.0
2314,1684923411470,431.0,442.0
2315,1684923411470,466.0,419.0
2316,1684923411470,411.0,415.0
2317,1684923411470,429.0,412.0
2318,1684923411470,436.0,497.0
2319,1684923411470,428.0,415.0
2320,1684923411470,412.0,439.0
2321,1684923411470,391.0,420.0
2322,1684923411470,436.0,487.0
2323,1684923411470,448.0,459.0
2324,1684923411470,422.0,441.0
2325,1684923411470,460.0,464.0
2326,1684923411470,440.0,426.0
2327,1684923411470,459.0,436.0
2328,1684923411470,444.0,417.0
2329,1684923411470,453.0,449.0
2330,1684923411470,458.0,413.0
2331,1684923411470,416.0,415.0
2332,1684923411470,447.0,423.0
2333,1684923411470,446.0,467.0
2334,1684923411470,419.0,388.0
2335,1684923411470,402.0,450.0
2336,1684923411470,406.0,437.0
2337,1684923411470,442.0,482.0
2338,1684923411470,422.0,428.0
2339,1684923411470,427.0,453.0
2340,1684923411470,461.0,472.0
2341,1684923411470,432.0,424.0
2342,1684923411470,453.0,446.0
2343,1684923411470,437.0,426.0
2344,1684923411470,460.0,445.0
2345,1684923411470,452.0,395.0
2346,1684923411470,418.0,419.0
2347,1684923411470,457.0,423.0
2348,1684923411470,428.0,428.0
2349,1684923411470,414.0,374.0
2350,1684923411470,420.0,475.0
2351,1684923411470,418.0,439.0
2352,1684923411470,430.0,452.0
2353,1684923411470,403.0,405.0
2354,1684923411470,430.0,469.0
2355,1684923411470,456.0,476.0
2356,1684923411470,423.0,431.0
2357,1684923411470,453.0,458.0
2358,1684923411470,444.0,431.0
2359,1684923411470,465.0,439.0
2360,1684923411470,444.0,403.0
2361,1684923411470,429.0,439.0
2362,1684923411470,464.0,418.0
2363,1684923411470,419.0,416.0
2364,1684923411470,421.0,407.0
2365,1684923411470,432.0,498.0
2366,1684923411470,430.0,416.0
2367,1684923411470,410.0,439.0
2368,1684923411470,395.0,416.0
2369,1684923411470,433.0,487.0
2370,1684923411470,447.0,460.0
2371,1684923411470,426.0,443.0
2372,1684923411470,457.0,467.0
2373,1684923411470,433.0,432.0
2374,1684923411470,459.0,437.0
2375,1684923411470,436.0,412.0
2376,1684923411470,446.0,447.0
2377,1684923411470,463.0,416.0
2378,1684923411470,412.0,414.0
2379,1684923411470,447.0,418.0
2380,1684923411470,445.0,470.0
2381,1684923411470,416.0,390.0
2382,1684923411470,403.0,448.0
2383,1684923411470,412.0,439.0
2384,1684923411470,442.0,486.0
2385,1684923411470,426.0,432.0
2386,1684923411470,429.0,453.0
2387,1684923411470,458.0,471.0
2388,1684923411470,429.0,422.0
2389,1684923411470,457.0,443.0
2390,1684923411470,441.0,424.0
2391,1684923411470,459.0,443.0
2392,1684923411470,452.0,396.0
2393,1684923411470,419.0,420.0
2394,1684923411470,454.0,423.0
2395,1684923411470,434.0,432.0
2396,1684923411470,417.0,375.0
2397,1684923411470,417.0,471.0
2398,1684923411470,420.0,437.0
2399,1684923411470,435.0,454.0
2400,1684923411470,408.0,406.0
2401,1684923411470,428.0,463.0
2402,1684923411470,452.0,471.0
2403,1684923411470,422.0,432.0
2404,1684923411470,454.0,451.0
2405,1684923411470,439.0,433.0
2406,1684923411470,460.0,442.0
2407,1684923411470,443.0,408.0
2408,1684923411470,427.0,439.0
2409,1684923411470,464.0,422.0
2410,1684923411470,421.0,417.0
2411,1684923411470,424.0,405.0
2412,1684923411470,441.0,493.0
2413,1684923411470,423.0,415.0
2414,1684923411470,409.0,441.0
2415,1684923411470,397.0,413.0
2416,1684923411470,438.0,485.0
2417,1684923411470,446.0,460.0
2418,1684923411470,426.0,444.0
2419,1684923411470,455.0,463.0
2420,1684923411470,441.0,431.0
2421,1684923411470,459.0,440.0
2422,1684923411470,440.0,417.0
2423,1684923411470,449.0,447.0
2424,1684923411470,460.0,416.0
2425,1684923411470,415.0,412.0
2426,1684923411470,444.0,420.0
2427,1684923411470,445.0,468.0
2428,1684923411470,423.0,392.0
2429,1684923411470,405.0,452.0
2430,1684923411470,407.0,435.0
2431,1684923411470,443.0,489.0
2432,1684923411470,430.0,431.0
2433,1684923411470,427.0,457.0
2434,1684923411470,457.0,470.0
2435,1684923411470,433.0,423.0
2436,1684923411470,456.0,440.0
2437,1684923411470,442.0,425.0
2438,1684923411470,459.0,443.0
2439,1684923411470,453.0,398.0
2440,1684923411470,419.0,422.0
2441,1684923411470,456.0,424.0
2442,1684923411470,432.0,432.0
2443,1684923411470,414.0,376.0
2444,1684923411470,409.0,473.0
2445,1684923411470,417.0,436.0
2446,1684923411470,431.0,454.0
2447,1684923411470,408.0,408.0
2448,1684923411470,427.0,466.0
2449,1684923411470,461.0,473.0
2450,1684923411470,425.0,429.0
2451,1684923411470,458.0,453.0
2452,1684923411470,443.0,432.0
2453,1684923411470,458.0,439.0
2454,1684923411470,443.0,404.0
2455,1684923411470,430.0,439.0
2456,1684923411470,463.0,425.0
2457,1684923411470,423.0,422.0
2458,1684923411470,427.0,411.0
2459,1684923411470,431.0,496.0
2460,1684923411470,425.0,415.0
2461,1684923411470,410.0,437.0
2462,1684923411470,397.0,416.0
2463,1684923411470,431.0,479.0
2464,1684923411470,451.0,457.0
2465,1684923411470,424.0,441.0
2466,1684923411470,454.0,459.0
2467,1684923411470,442.0,428.0
2468,1684923411470,461.0,436.0
2469,1684923411470,437.0,415.0
2470,1684923411470,448.0,447.0
2471,1684923411470,460.0,414.0
2472,1684923411470,417.0,417.0
2473,1684923411470,442.0,421.0
2474,1684923411470,443.0,469.0
2475,1684923411470,422.0,391.0
2476,1684923411470,401.0,451.0
2477,1684923411470,410.0,440.0
2478,1684923411470,438.0,489.0
2479,1684923411470,423.0,429.0
2480,1684923411470,427.0,454.0
2481,1684923411470,456.0,472.0
2482,1684923411470,431.0,424.0
2483,1684923411470,456.0,443.0
2484,1684923411470,439.0,427.0
2485,1684923411470,464.0,445.0
2486,1684923411470,449.0,394.0
2487,1684923411470,413.0,420.0
2488,1684923411470,457.0,421.0
2489,1684923411470,431.0,429.0
2490,1684923411470,417.0,374.0
2491,1684923411470,411.0,474.0
2492,1684923411470,418.0,439.0
2493,1684923411470,424.0,454.0
2494,1684923411470,406.0,408.0
2495,1684923411470,433.0,469.0
2496,1684923411470,454.0,474.0
2497,1684923411470,431.0,426.0
2498,1684923411470,454.0,456.0
2499,1684923411470,442.0,431.0
2500,1684923411470,457.0,440.0
2501,1684923411470,442.0,402.0
2502,1684923411470,427.0,436.0
2503,1684923411470,462.0,418.0
2504,1684923411470,419.0,419.0
2505,1684923411470,426.0,409.0
2506,1684923411470,427.0,499.0
2507,1684923411470,426.0,418.0
2508,1684923411470,410.0,437.0
2509,1684923411470,394.0,412.0
2510,1684923411470,430.0,486.0
2511,1684923411470,452.0,464.0
2512,1684923411470,423.0,438.0
2513,1684923411470,457.0,464.0
2514,1684923411470,439.0,428.0
2515,1684923411470,460.0,438.0
2516,1684923411470,440.0,411.0
2517,1684923411470,443.0,448.0
2518,1684923411470,461.0,417.0
2519,1684923411470,418.0,415.0
2520,1684923411470,448.0,420.0
2521,1684923411470,451.0,480.0
2522,1684923411470,423.0,389.0
2523,1684923411470,402.0,448.0
2524,1684923411470,403.0,437.0
2525,1684923411470,441.0,487.0
2526,1684923411470,431.0,426.0
2527,1684923411470,424.0,455.0
2528,1684923411470,459.0,475.0
2529,1684923411470,432.0,423.0
2530,1684923411470,455.0,443.0
2531,1684923411470,438.0,424.0
2532,1684923411470,460.0,445.0
2533,1684923411470,449.0,396.0
2534,1684923411470,420.0,423.0
2535,1684923411470,457.0,421.0
2536,1684923411470,433.0,431.0
2537,1684923411470,410.0,370.0
2538,1684923411470,413.0,470.0
2539,1684923411470,423.0,439.0
2540,1684923411470,430.0,456.0
2541,1684923411470,403.0,406.0
2542,1684923411470,424.0,465.0
2543,1684923411470,454.0,477.0
2544,1684923411470,431.0,429.0
2545,1684923411470,457.0,455.0
2546,1684923411470,442.0,430.0
2547,1684923411470,465.0,440.0
2548,1684923411470,445.0,400.0
2549,1684923411470,430.0,436.0
2550,1684923411470,461.0,418.0
2551,1684923411470,418.0,419.0
2552,1684923411470,421.0,406.0
2553,1684923411470,428.0,496.0
2554,1684923411470,427.0,421.0
2555,1684923411470,408.0,442.0
2556,1684923411470,392.0,418.0
2557,1684923411470,437.0,484.0
2558,1684923411470,448.0,462.0
2559,1684923411470,425.0,442.0
2560,1684923411470,456.0,460.0
2561,1684923411470,438.0,426.0
2562,1684923411470,455.0,436.0
2563,1684923411470,440.0,412.0
2564,1684923411470,448.0,448.0
2565,1684923411470,456.0,415.0
2566,1684923411470,415.0,415.0
2567,1684923411470,446.0,422.0
2568,1684923411470,450.0,476.0
2569,1684923411470,424.0,394.0
2570,1684923411470,407.0,448.0
2571,1684923411470,403.0,433.0
2572,1684923411470,444.0,485.0
2573,1684923411470,432.0,429.0
2574,1684923411470,429.0,451.0
2575,1684923411470,454.0,470.0
2576,1684923411470,428.0,424.0
2577,1684923411470,455.0,443.0
2578,1684923411470,436.0,426.0
2579,1684923411470,456.0,444.0
2580,1684923411470,453.0,395.0
2581,1684923411470,419.0,423.0
2582,1684923411470,460.0,425.0
2583,1684923411470,438.0,434.0
2584,1684923411470,412.0,376.0
2585,1684923411470,412.0,469.0
2586,1684923411470,419.0,436.0
2587,1684923411470,430.0,454.0
2588,1684923411470,409.0,409.0
2589,1684923411470,427.0,467.0
2590,1684923411470,454.0,473.0
2591,1684923411470,430.0,431.0
2592,1684923411470,452.0,453.0
2593,1684923411470,438.0,431.0
2594,1684923411470,462.0,444.0
2595,1684923411470,444.0,403.0
2596,1684923411470,428.0,433.0
2597,1684923411470,462.0,421.0
2598,1684923411470,417.0,419.0
2599,1684923411470,423.0,403.0
2600,1684923411470,426.0,489.0
2601,1684923411470,429.0,418.0
2602,1684923411470,412.0,440.0
2603,1684923411470,396.0,416.0
2604,1684923411470,429.0,481.0
2605,1684923411470,447.0,462.0
2606,1684923411470,423.0,444.0
2607,1684923411470,458.0,463.0
2608,1684923411470,436.0,430.0
2609,1684923411470,459.0,437.0
2610,1684923411470,443.0,416.0
2611,1684923411470,452.0,448.0
2612,1684923411470,459.0,416.0
2613,1684923411470,410.0,411.0
2614,1684923411470,439.0,416.0
2615,1684923411470,447.0,470.0
2616,1684923411470,423.0,395.0
2617,1684923411470,401.0,450.0
2618,1684923411470,406.0,438.0
2619,1684923411470,443.0,488.0
2620,1684923411470,431.0,435.0
2621,1684923411470,427.0,453.0
2622,1684923411470,456.0,471.0
2623,1684923411470,434.0,422.0
2624,1684923411470,455.0,440.0
2625,1684923411470,440.0,425.0
2626,1684923411470,456.0,443.0
2627,1684923411470,450.0,398.0
2628,1684923411470,420.0,421.0
2629,1684923411470,450.0,423.0
2630,1684923411470,437.0,437.0
2631,1684923411470,417.0,379.0
2632,1684923411470,418.0,474.0
2633,1684923411470,421.0,437.0
2634,1684923411470,435.0,456.0
2635,1684923411470,407.0,411.0
2636,1684923411470,429.0,465.0
2637,1684923411470,455.0,469.0
2638,1684923411470,421.0,424.0
2639,1684923411470,453.0,449.0
2640,1684923411470,437.0,429.0
2641,1684923411470,458.0,440.0
2642,1684923411470,443.0,407.0
2643,1684923411470,431.0,435.0
2644,1684923411470,465.0,427.0
2645,1684923411470,421.0,420.0
2646,1684923411470,427.0,405.0
2647,1684923411470,434.0,492.0
2648,1684923411470,421.0,416.0
2649,1684923411470,416.0,438.0
2650,1684923411470,391.0,411.0
2651,1684923411470,427.0,477.0
2652,1684923411470,449.0,463.0
2653,1684923411470,421.0,441.0
2654,1684923411470,458.0,465.0
2655,1684923411470,443.0,433.0
2656,1684923411470,460.0,442.0
2657,1684923411470,441.0,416.0
2658,1684923411470,447.0,445.0
2659,1684923411470,458.0,417.0
2660,1684923411470,417.0,413.0
2661,1684923411470,440.0,415.0
2662,1684923411470,448.0,479.0
2663,1684923411470,421.0,391.0
2664,1684923411470,405.0,447.0
2665,1684923411470,400.0,436.0
2666,1684923411470,438.0,487.0
2667,1684923411470,429.0,433.0
2668,1684923411470,428.0,459.0
2669,1684923411470,451.0,474.0
2670,1684923411470,434.0,427.0
2671,1684923411470,458.0,442.0
2672,1684923411470,440.0,423.0
2673,1684923411470,454.0,444.0
2674,1684923411470,453.0,394.0
2675,1684923411470,413.0,418.0
2676,1684923411470,448.0,421.0
2677,1684923411470,430.0,430.0
2678,1684923411470,413.0,374.0
2679,1684923411470,412.0,470.0
2680,1684923411470,421.0,440.0
2681,1684923411470,426.0,459.0
2682,1684923411470,413.0,412.0
2683,1684923411470,430.0,465.0
2684,1684923411470,459.0,471.0
2685,1684923411470,430.0,428.0
2686,1684923411470,452.0,448.0
2687,1684923411470,442.0,431.0
2688,1684923411470,458.0,440.0
2689,1684923411470,446.0,404.0
2690,1684923411470,427.0,434.0
2691,1684923411470,460.0,424.0
2692,1684923411470,418.0,422.0
2693,1684923411470,421.0,407.0
2694,1684923411470,433.0,496.0
2695,1684923411470,424.0,420.0
2696,1684923411470,415.0,439.0
2697,1684923411470,396.0,412.0
2698,1684923411470,435.0,481.0
2699,1684923411470,452.0,463.0
2700,1684923411470,425.0,438.0
2701,1684923411470,457.0,461.0
2702,1684923411470,437.0,426.0
2703,1684923411470,456.0,436.0
2704,1684923411470,441.0,412.0
2705,1684923411470,446.0,451.0
2706,1684923411470,458.0,418.0
2707,1684923411470,415.0,416.0
2708,1684923411470,448.0,423.0
2709,1684923411470,451.0,484.0
2710,1684923411470,421.0,390.0
2711,1684923411470,406.0,444.0
2712,1684923411470,400.0,434.0
2713,1684923411470,442.0,487.0
2714,1684923411470,431.0,434.0
2715,1684923411470,429.0,451.0
2716,1684923411470,452.0,470.0
2717,1684923411470,432.0,423.0
2718,1684923411470,458.0,444.0
2719,1684923411470,439.0,425.0
2720,1684923411470,454.0,446.0
2721,1684923411470,459.0,398.0
2722,1684923411470,417.0,420.0
2723,1684923411470,454.0,424.0
2724,1684923411470,437.0,434.0
2725,1684923411470,412.0,372.0
2726,1684923411470,411.0,466.0
2727,1684923411470,409.0,439.0
2728,1684923411470,432.0,460.0
2729,1684923411470,409.0,410.0
2730,1684923411470,423.0,464.0
2731,1684923411470,455.0,475.0
2732,1684923411470,432.0,432.0
2733,1684923411479,459.0,452.0
2734,1684923411479,441.0,435.0
2735,1684923411479,461.0,442.0
2736,1684923411479,441.0,398.0
2737,1684923411479,426.0,433.0
2738,1684923411479,460.0,420.0
2739,1684923411479,418.0,418.0
2740,1684923411479,417.0,401.0
2741,1684923411479,427.0,491.0
2742,1684923411479,425.0,423.0
2743,1684923411479,413.0,444.0
2744,1684923411479,395.0,414.0
2745,1684923411479,435.0,482.0
2746,1684923411479,454.0,466.0
2747,1684923411479,428.0,442.0
2748,1684923411479,455.0,458.0
2749,1684923411479,442.0,425.0
2750,1684923411479,458.0,434.0
2751,1684923411479,436.0,412.0
2752,1684923411479,446.0,448.0
2753,1684923411479,465.0,417.0
2754,1684923411479,415.0,418.0
2755,1684923411479,436.0,422.0
2756,1684923411479,444.0,485.0
2757,1684923411479,426.0,396.0
2758,1684923411479,402.0,447.0
2759,1684923411479,403.0,437.0
2760,1684923411479,444.0,488.0
2761,1684923411479,435.0,434.0
2762,1684923411479,425.0,451.0
2763,1684923411479,460.0,469.0
2764,1684923411479,435.0,421.0
2765,1684923411479,453.0,441.0
2766,1684923411479,439.0,425.0
2767,1684923411479,459.0,448.0
2768,1684923411479,454.0,399.0
2769,1684923411479,422.0,422.0
2770,1684923411479,455.0,425.0
2771,1684923411479,439.0,439.0
2772,1684923411479,420.0,377.0
2773,1684923411479,413.0,468.0
2774,1684923411479,415.0,435.0
2775,1684923411479,435.0,458.0
2776,1684923411479,408.0,411.0
2777,1684923411479,428.0,464.0
2778,1684923411479,456.0,473.0
2779,1684923411479,429.0,427.0
2780,1684923411479,457.0,449.0
2781,1684923411479,441.0,435.0
2782,1684923411479,461.0,444.0
2783,1684923411479,446.0,404.0
2784,1684923411479,429.0,432.0
2785,1684923411479,461.0,420.0
2786,1684923411479,420.0,419.0
2787,1684923411479,422.0,402.0
2788,1684923411479,427.0,489.0
2789,1684923411479,425.0,420.0
2790,1684923411479,418.0,439.0
2791,1684923411479,390.0,413.0
2792,1684923411479,435.0,479.0
2793,1684923411479,449.0,467.0
2794,1684923411479,426.0,442.0
2795,1684923411479,458.0,466.0
2796,1684923411479,448.0,435.0
2797,1684923411479,457.0,438.0
2798,1684923411479,444.0,411.0
2799,1684923411479,447.0,448.0
2800,1684923411479,461.0,414.0
2801,1684923411479,417.0,410.0
2802,1684923411479,433.0,414.0
2803,1684923411479,446.0,482.0
2804,1684923411479,425.0,395.0
2805,1684923411479,410.0,447.0
2806,1684923411479,400.0,433.0
2807,1684923411479,441.0,490.0
2808,1684923411479,433.0,439.0
2809,1684923411479,409.0,454.0
2810,1684923411479,464.0,468.0
2811,1684923411479,441.0,426.0
2812,1684923411479,427.0,441.0
2813,1684923411479,429.0,421.0
2814,1684923411479,455.0,446.0
2815,1684923411479,454.0,398.0
2816,1684923411479,416.0,421.0
2817,1684923411479,453.0,423.0
2818,1684923411479,438.0,438.0
2819,1684923411479,412.0,379.0
2820,1684923411479,414.0,469.0
2821,1684923411479,415.0,436.0
2822,1684923411479,428.0,462.0
2823,1684923411479,415.0,410.0
2824,1684923411479,432.0,463.0
2825,1684923411479,457.0,475.0
2826,1684923411479,439.0,424.0
2827,1684923411479,453.0,451.0
2828,1684923411479,422.0,436.0
2829,1684923411479,451.0,441.0
2830,1684923411479,443.0,402.0
2831,1684923411479,425.0,431.0
2832,1684923411479,464.0,425.0
2833,1684923411479,426.0,425.0
2834,1684923411479,417.0,404.0
2835,1684923411479,427.0,490.0
2836,1684923411479,423.0,421.0
2837,1684923411479,419.0,442.0
2838,1684923411479,396.0,411.0
2839,1684923411479,432.0,474.0
2840,1684923411479,450.0,469.0
2841,1684923411479,418.0,438.0
2842,1684923411479,461.0,459.0
2843,1684923411479,446.0,433.0
2844,1684923411479,459.0,439.0
2845,1684923411479,445.0,416.0
2846,1684923411479,445.0,446.0
2847,1684923411479,460.0,417.0
2848,1684923411479,419.0,416.0
2849,1684923411479,438.0,418.0
2850,1684923411479,448.0,482.0
2851,1684923411479,421.0,396.0
2852,1684923411479,407.0,444.0
2853,1684923411479,400.0,431.0
2854,1684923411479,435.0,487.0
2855,1684923411479,432.0,437.0
2856,1684923411479,425.0,455.0
2857,1684923411479,461.0,472.0
2858,1684923411479,436.0,427.0
2859,1684923411479,459.0,442.0
2860,1684923411479,443.0,427.0
2861,1684923411479,458.0,445.0
2862,1684923411479,460.0,398.0
2863,1684923411479,419.0,418.0
2864,1684923411479,450.0,422.0
2865,1684923411479,437.0,436.0
2866,1684923411479,414.0,375.0
2867,1684923411479,411.0,467.0
2868,1684923411479,419.0,438.0
2869,1684923411479,435.0,465.0
2870,1684923411479,413.0,416.0
2871,1684923411479,426.0,464.0
2872,1684923411479,458.0,476.0
2873,1684923411479,427.0,426.0
2874,1684923411479,452.0,444.0
2875,1684923411479,445.0,428.0
2876,1684923411479,463.0,440.0
2877,1684923411479,444.0,402.0
2878,1684923411479,423.0,429.0
2879,1684923411479,462.0,422.0
2880,1684923411479,423.0,421.0
2881,1684923411479,412.0,403.0
2882,1684923411479,430.0,490.0
2883,1684923411479,427.0,422.0
2884,1684923411479,418.0,441.0
2885,1684923411479,394.0,412.0
2886,1684923411479,432.0,475.0
2887,1684923411479,451.0,465.0
2888,1684923411479,426.0,438.0
2889,1684923411479,454.0,459.0
2890,1684923411479,438.0,428.0
2891,1684923411479,462.0,437.0
2892,1684923411479,435.0,414.0
2893,1684923411479,443.0,448.0
2894,1684923411479,463.0,418.0
2895,1684923411479,412.0,415.0
2896,1684923411479,436.0,420.0
2897,1684923411479,446.0,489.0
2898,1684923411479,422.0,397.0
2899,1684923411479,404.0,444.0
2900,1684923411479,403.0,432.0
2901,1684923411479,438.0,486.0
2902,1684923411479,429.0,439.0
2903,1684923411479,429.0,453.0
2904,1684923411479,446.0,469.0
2905,1684923411479,441.0,422.0
2906,1684923411479,454.0,442.0
2907,1684923411479,436.0,424.0
2908,1684923411479,458.0,446.0
2909,1684923411479,456.0,398.0
2910,1684923411479,417.0,421.0
2911,1684923411479,450.0,420.0
2912,1684923411479,437.0,436.0
2913,1684923411479,412.0,373.0
2914,1684923411479,409.0,466.0
2915,1684923411479,415.0,438.0
2916,1684923411479,436.0,462.0
2917,1684923411479,414.0,412.0
2918,1684923411479,430.0,462.0
2919,1684923411479,453.0,477.0
2920,1684923411479,434.0,426.0
2921,1684923411479,441.0,447.0
2922,1684923411479,445.0,432.0
2923,1684923411479,463.0,444.0
2924,1684923411479,454.0,402.0
2925,1684923411479,424.0,429.0
2926,1684923411479,466.0,424.0
2927,1684923411479,421.0,419.0
2928,1684923411479,415.0,398.0
2929,1684923411479,424.0,487.0
2930,1684923411479,430.0,425.0
2931,1684923411479,413.0,441.0
2932,1684923411479,399.0,409.0
2933,1684923411479,434.0,477.0
2934,1684923411479,453.0,470.0
2935,1684923411479,425.0,440.0
2936,1684923411479,458.0,461.0
2937,1684923411479,440.0,430.0
2938,1684923411479,463.0,435.0
2939,1684923411479,440.0,410.0
2940,1684923411479,445.0,447.0
2941,1684923411479,463.0,417.0
2942,1684923411479,420.0,414.0
2943,1684923411479,437.0,420.0
2944,1684923411479,442.0,489.0
2945,1684923411479,422.0,399.0
2946,1684923411479,409.0,444.0
2947,1684923411479,398.0,434.0
2948,1684923411479,439.0,492.0
2949,1684923411479,439.0,439.0
2950,1684923411479,423.0,451.0
2951,1684923411479,456.0,466.0
2952,1684923411479,432.0,423.0
2953,1684923411479,454.0,436.0
2954,1684923411479,436.0,418.0
2955,1684923411479,450.0,446.0
2956,1684923411479,457.0,398.0
2957,1684923411479,417.0,417.0
2958,1684923411479,453.0,421.0
2959,1684923411479,438.0,444.0
2960,1684923411479,417.0,378.0
2961,1684923411479,407.0,465.0
2962,1684923411479,421.0,439.0
2963,1684923411479,444.0,465.0
2964,1684923411479,412.0,412.0
2965,1684923411479,425.0,459.0
2966,1684923411479,455.0,473.0
2967,1684923411479,429.0,427.0
2968,1684923411479,451.0,448.0
2969,1684923411479,441.0,434.0
2970,1684923411479,455.0,444.0
2971,1684923411479,440.0,399.0
2972,1684923411479,424.0,427.0
2973,1684923411479,467.0,423.0
2974,1684923411479,426.0,422.0
2975,1684923411479,418.0,396.0
2976,1684923411479,426.0,487.0
2977,1684923411479,426.0,425.0
2978,1684923411479,417.0,440.0
2979,1684923411479,393.0,407.0
2980,1684923411479,430.0,476.0
2981,1684923411479,451.0,469.0
2982,1684923411479,422.0,440.0
2983,1684923411479,459.0,460.0
2984,1684923411479,444.0,431.0
2985,1684923411479,460.0,437.0
2986,1684923411479,438.0,413.0
2987,1684923411479,444.0,448.0
2988,1684923411479,464.0,417.0
2989,1684923411479,417.0,410.0
2990,1684923411479,433.0,413.0
2991,1684923411479,442.0,489.0
2992,1684923411479,422.0,401.0
2993,1684923411479,408.0,444.0
2994,1684923411479,397.0,434.0
2995,1684923411479,443.0,492.0
2996,1684923411479,433.0,441.0
2997,1684923411479,424.0,451.0
2998,1684923411479,459.0,469.0
2999,1684923411479,439.0,425.0
3000,1684923411479,456.0,437.0
3001,1684923411479,441.0,419.0
3002,1684923411479,457.0,446.0
3003,1684923411479,452.0,398.0
3004,1684923411479,418.0,418.0
3005,1684923411479,446.0,421.0
3006,1684923411479,440.0,444.0
3007,1684923411479,413.0,378.0
3008,1684923411479,409.0,465.0
3009,1684923411479,412.0,441.0
3010,1684923411479,440.0,469.0
3011,1684923411479,415.0,417.0
3012,1684923411479,427.0,460.0
3013,1684923411479,460.0,476.0
3014,1684923411479,429.0,426.0
3015,1684923411479,454.0,444.0
3016,1684923411479,440.0,431.0
3017,1684923411479,459.0,444.0
3018,1684923411479,446.0,400.0
3019,1684923411479,423.0,427.0
3020,1684923411479,463.0,426.0
3021,1684923411479,430.0,426.0
3022,1684923411479,418.0,398.0
3023,1684923411479,424.0,490.0
3024,1684923411479,423.0,423.0
3025,1684923411479,417.0,442.0
3026,1684923411479,395.0,409.0
3027,1684923411479,432.0,474.0
3028,1684923411479,446.0,471.0
3029,1684923411479,425.0,436.0
3030,1684923411479,458.0,459.0
3031,1684923411479,446.0,429.0
3032,1684923411479,459.0,437.0
3033,1684923411479,438.0,412.0
3034,1684923411479,443.0,451.0
3035,1684923411479,463.0,415.0
3036,1684923411479,415.0,413.0
3037,1684923411479,439.0,416.0
3038,1684923411479,444.0,493.0
3039,1684923411479,424.0,398.0
3040,1684923411479,405.0,443.0
3041,1684923411479,401.0,433.0
3042,1684923411479,436.0,493.0
3043,1684923411479,439.0,439.0
3044,1684923411479,427.0,451.0
3045,1684923411479,457.0,469.0
3046,1684923411479,443.0,425.0
3047,1684923411479,457.0,443.0
3048,1684923411479,443.0,424.0
3049,1684923411479,456.0,446.0
3050,1684923411479,461.0,395.0
3051,1684923411479,416.0,417.0
3052,1684923411479,452.0,417.0
3053,1684923411479,436.0,442.0
3054,1684923411479,414.0,375.0
3055,1684923411479,410.0,467.0
3056,1684923411479,411.0,439.0
3057,1684923411479,430.0,470.0
3058,1684923411479,412.0,417.0
3059,1684923411479,428.0,462.0
3060,1684923411479,460.0,480.0
3061,1684923411479,431.0,423.0
3062,1684923411479,454.0,448.0
3063,1684923411479,442.0,430.0
3064,1684923411479,459.0,440.0
3065,1684923411479,440.0,396.0
3066,1684923411479,424.0,428.0
3067,1684923411479,464.0,420.0
3068,1684923411479,420.0,421.0
3069,1684923411479,409.0,399.0
3070,1684923411479,419.0,492.0
3071,1684923411479,426.0,426.0
3072,1684923411479,418.0,444.0
3073,1684923411479,395.0,413.0
3074,1684923411479,435.0,479.0
3075,1684923411479,452.0,467.0
3076,1684923411479,424.0,433.0
3077,1684923411479,452.0,457.0
3078,1684923411479,445.0,426.0
3079,1684923411479,459.0,435.0
3080,1684923411479,440.0,408.0
3081,1684923411479,443.0,450.0
3082,1684923411479,465.0,418.0
3083,1684923411479,423.0,414.0
3084,1684923411479,440.0,419.0
3085,1684923411479,441.0,496.0
3086,1684923411479,428.0,398.0
3087,1684923411479,403.0,442.0
3088,1684923411479,401.0,430.0
3089,1684923411479,441.0,492.0
3090,1684923411479,432.0,439.0
3091,1684923411479,425.0,447.0
3092,1684923411479,453.0,468.0
3093,1684923411479,442.0,422.0
3094,1684923411479,457.0,439.0
3095,1684923411479,445.0,425.0
3096,1684923411479,456.0,449.0
3097,1684923411479,459.0,398.0
3098,1684923411479,419.0,418.0
3099,1684923411479,454.0,422.0
3100,1684923411479,438.0,444.0
3101,1684923411479,412.0,375.0
3102,1684923411479,403.0,463.0
3103,1684923411479,412.0,442.0
3104,1684923411479,437.0,467.0
3105,1684923411479,407.0,413.0
3106,1684923411479,430.0,463.0
3107,1684923411479,460.0,478.0
3108,1684923411479,431.0,428.0
3109,1684923411479,457.0,450.0
3110,1684923411479,442.0,432.0
3111,1684923411479,458.0,443.0
3112,1684923411479,447.0,395.0
3113,1684923411479,420.0,421.0
3114,1684923411479,453.0,419.0
3115,1684923411479,421.0,420.0
3116,1684923411479,410.0,393.0
3117,1684923411479,421.0,490.0
3118,1684923411479,426.0,430.0
3119,1684923411479,416.0,445.0
3120,1684923411479,397.0,411.0
3121,1684923411479,434.0,478.0
3122,1684923411479,452.0,471.0
3123,1684923411479,428.0,434.0
3124,1684923411479,459.0,461.0
3125,1684923411479,444.0,427.0
3126,1684923411479,457.0,434.0
3127,1684923411479,439.0,408.0
3128,1684923411479,446.0,448.0
3129,1684923411479,461.0,413.0
3130,1684923411479,415.0,413.0
3131,1684923411479,435.0,418.0
3132,1684923411479,441.0,498.0
3133,1684923411479,423.0,400.0
3134,1684923411479,406.0,441.0
3135,1684923411479,405.0,433.0
3136,1684923411479,446.0,492.0
3137,1684923411479,437.0,443.0
3138,1684923411479,424.0,447.0
3139,1684923411479,456.0,469.0
3140,1684923411479,433.0,419.0
3141,1684923411479,454.0,440.0
3142,1684923411479,443.0,420.0
3143,1684923411479,453.0,445.0
3144,1684923411479,462.0,399.0
3145,1684923411479,420.0,421.0
3146,1684923411479,451.0,419.0
3147,1684923411479,439.0,448.0
3148,1684923411479,413.0,378.0
3149,1684923411479,409.0,462.0
3150,1684923411479,416.0,440.0
3151,1684923411479,438.0,470.0
3152,1684923411479,414.0,414.0
3153,1684923411479,425.0,460.0
3154,1684923411479,454.0,475.0
3155,1684923411479,425.0,423.0
3156,1684923411479,454.0,449.0
3157,1684923411479,444.0,431.0
3158,1684923411479,464.0,444.0
3159,1684923411479,446.0,400.0
3160,1684923411479,427.0,424.0
3161,1684923411479,462.0,423.0
3162,1684923411479,420.0,423.0
3163,1684923411479,418.0,394.0
3164,1684923411479,422.0,489.0
3165,1684923411479,425.0,428.0
3166,1684923411479,414.0,443.0
3167,1684923411479,399.0,408.0
3168,1684923411479,426.0,476.0
3169,1684923411479,446.0,471.0
3170,1684923411479,427.0,437.0
3171,1684923411479,455.0,463.0
3172,1684923411479,446.0,431.0
3173,1684923411479,462.0,440.0
3174,1684923411479,448.0,408.0
3175,1684923411479,442.0,446.0
3176,1684923411479,460.0,413.0
3177,1684923411479,416.0,410.0
3178,1684923411479,437.0,413.0
3179,1684923411479,441.0,494.0
3180,1684923411479,425.0,402.0
3181,1684923411479,404.0,444.0
3182,1684923411479,396.0,432.0
3183,1684923411479,439.0,493.0
3184,1684923411479,440.0,442.0
3185,1684923411479,425.0,452.0
3186,1684923411479,459.0,468.0
3187,1684923411479,436.0,424.0
3188,1684923411479,453.0,438.0
3189,1684923411479,441.0,419.0
3190,1684923411479,457.0,444.0
3191,1684923411479,458.0,399.0
3192,1684923411479,418.0,421.0
3193,1684923411479,449.0,419.0
3194,1684923411479,441.0,445.0
3195,1684923411479,417.0,378.0
3196,1684923411479,404.0,467.0
3197,1684923411479,415.0,440.0
3198,1684923411479,439.0,466.0
3199,1684923411479,420.0,416.0
3200,1684923411479,429.0,458.0
3201,1684923411479,456.0,474.0
3202,1684923411479,427.0,422.0
3203,1684923411479,456.0,446.0
3204,1684923411479,439.0,428.0
3205,1684923411479,458.0,442.0
3206,1684923411479,445.0,398.0
3207,1684923411479,425.0,427.0
3208,1684923411479,461.0,428.0
3209,1684923411479,428.0,427.0
3210,1684923411479,413.0,395.0
3211,1684923411479,419.0,489.0
3212,1684923411479,425.0,424.0
3213,1684923411479,417.0,442.0
3214,1684923411479,391.0,410.0
3215,1684923411479,432.0,473.0
3216,1684923411479,449.0,470.0
3217,1684923411479,423.0,436.0
3218,1684923411479,457.0,460.0
3219,1684923411479,446.0,429.0
3220,1684923411479,459.0,438.0
3221,1684923411479,440.0,409.0
3222,1684923411479,441.0,448.0
3223,1684923411479,463.0,415.0
3224,1684923411479,419.0,414.0
3225,1684923411479,436.0,417.0
3226,1684923411479,442.0,495.0
3227,1684923411479,425.0,400.0
3228,1684923411479,403.0,443.0
3229,1684923411479,400.0,432.0
3230,1684923411479,437.0,488.0
3231,1684923411479,435.0,441.0
3232,1684923411479,425.0,449.0
3233,1684923411479,457.0,470.0
3234,1684923411479,433.0,424.0
3235,1684923411479,460.0,439.0
3236,1684923411479,443.0,423.0
3237,1684923411479,455.0,447.0
3238,1684923411479,459.0,398.0
3239,1684923411479,418.0,417.0
3240,1684923411479,448.0,421.0
3241,1684923411479,438.0,444.0
3242,1684923411479,416.0,377.0
3243,1684923411479,410.0,466.0
3244,1684923411479,415.0,439.0
3245,1684923411479,436.0,465.0
3246,1684923411479,414.0,413.0
3247,1684923411479,430.0,461.0
3248,1684923411479,455.0,477.0
3249,1684923411479,433.0,426.0
3250,1684923411479,454.0,447.0
3251,1684923411479,444.0,432.0
3252,1684923411479,460.0,444.0
3253,1684923411479,442.0,397.0
3254,1684923411479,423.0,424.0
3255,1684923411479,457.0,420.0
3256,1684923411479,425.0,422.0
3257,1684923411479,415.0,397.0
3258,1684923411479,420.0,493.0
3259,1684923411479,425.0,427.0
3260,1684923411479,414.0,442.0
3261,1684923411479,396.0,409.0
3262,1684923411479,431.0,480.0
3263,1684923411479,456.0,471.0
3264,1684923411479,425.0,433.0
3265,1684923411479,460.0,458.0
3266,1684923411479,439.0,426.0
3267,1684923411479,460.0,435.0
3268,1684923411479,440.0,406.0
3269,1684923411479,438.0,445.0
3270,1684923411479,466.0,416.0
3271,1684923411479,418.0,415.0
3272,1684923411479,436.0,419.0
3273,1684923411479,444.0,500.0
3274,1684923411479,422.0,397.0
3275,1684923411479,403.0,443.0
3276,1684923411479,399.0,434.0
3277,1684923411479,439.0,490.0
3278,1684923411479,438.0,439.0
3279,1684923411479,426.0,447.0
3280,1684923411479,453.0,471.0
3281,1684923411479,438.0,423.0
3282,1684923411479,453.0,437.0
3283,1684923411479,442.0,419.0
3284,1684923411479,455.0,445.0
3285,1684923411479,460.0,397.0
3286,1684923411479,419.0,421.0
3287,1684923411479,450.0,419.0
3288,1684923411479,438.0,444.0
3289,1684923411479,414.0,375.0
3290,1684923411479,405.0,465.0
3291,1684923411479,414.0,444.0
3292,1684923411479,430.0,468.0
3293,1684923411479,413.0,415.0
3294,1684923411479,426.0,461.0
3295,1684923411479,455.0,479.0
3296,1684923411479,429.0,422.0
3297,1684923411479,456.0,446.0
3298,1684923411479,446.0,430.0
3299,1684923411479,462.0,444.0
3300,1684923411479,445.0,398.0
3301,1684923411479,429.0,428.0
3302,1684923411479,463.0,421.0
3303,1684923411479,421.0,422.0
3304,1684923411479,409.0,393.0
3305,1684923411479,423.0,490.0
3306,1684923411479,425.0,428.0
3307,1684923411479,420.0,443.0
3308,1684923411479,393.0,411.0
3309,1684923411479,434.0,478.0
3310,1684923411479,457.0,471.0
3311,1684923411479,424.0,437.0
3312,1684923411479,452.0,461.0
3313,1684923411479,445.0,427.0
3314,1684923411479,459.0,435.0
3315,1684923411479,443.0,409.0
3316,1684923411479,446.0,450.0
3317,1684923411479,459.0,414.0
3318,1684923411479,420.0,413.0
3319,1684923411479,436.0,415.0
3320,1684923411479,444.0,497.0
3321,1684923411479,420.0,401.0
3322,1684923411479,401.0,445.0
3323,1684923411479,397.0,433.0
3324,1684923411479,439.0,492.0
3325,1684923411479,438.0,443.0
3326,1684923411479,425.0,449.0
3327,1684923411479,455.0,470.0
3328,1684923411479,439.0,423.0
3329,1684923411479,458.0,442.0
3330,1684923411479,443.0,419.0
3331,1684923411479,457.0,444.0
3332,1684923411479,457.0,397.0
3333,1684923411479,416.0,419.0
3334,1684923411479,457.0,425.0
3335,1684923411479,438.0,448.0
3336,1684923411479,415.0,377.0
3337,1684923411479,409.0,465.0
3338,1684923411479,415.0,438.0
3339,1684923411479,433.0,465.0
3340,1684923411479,412.0,415.0
3341,1684923411479,427.0,460.0
3342,1684923411479,458.0,478.0
3343,1684923411479,432.0,425.0
3344,1684923411479,460.0,447.0
3345,1684923411479,437.0,430.0
3346,1684923411479,459.0,444.0
3347,1684923411479,444.0,397.0
3348,1684923411479,428.0,426.0
3349,1684923411479,461.0,423.0
3350,1684923411479,422.0,424.0
3351,1684923411479,416.0,401.0
3352,1684923411479,428.0,491.0
3353,1684923411479,419.0,423.0
3354,1684923411479,419.0,444.0
3355,1684923411479,398.0,411.0
3356,1684923411479,428.0,475.0
3357,1684923411479,452.0,469.0
3358,1684923411479,425.0,437.0
3359,1684923411479,453.0,460.0
3360,1684923411479,443.0,430.0
3361,1684923411479,459.0,436.0
3362,1684923411479,446.0,413.0
3363,1684923411479,450.0,450.0
3364,1684923411479,463.0,415.0
3365,1684923411479,419.0,413.0
3366,1684923411479,436.0,415.0
3367,1684923411479,447.0,487.0
3368,1684923411479,426.0,398.0
3369,1684923411479,399.0,446.0
3370,1684923411479,397.0,435.0
3371,1684923411479,436.0,493.0
3372,1684923411479,435.0,439.0
3373,1684923411479,425.0,454.0
3374,1684923411479,456.0,471.0
3375,1684923411479,438.0,424.0
3376,1684923411479,457.0,437.0
3377,1684923411479,438.0,421.0
3378,1684923411479,455.0,446.0
3379,1684923411479,456.0,397.0
3380,1684923411479,419.0,418.0
3381,1684923411479,450.0,416.0
3382,1684923411479,438.0,442.0
3383,1684923411479,411.0,378.0
3384,1684923411479,409.0,469.0
3385,1684923411479,413.0,442.0
3386,1684923411479,436.0,465.0
3387,1684923411479,415.0,420.0
3388,1684923411479,427.0,462.0
3389,1684923411479,456.0,475.0
3390,1684923411479,433.0,422.0
3391,1684923411479,452.0,445.0
3392,1684923411479,443.0,428.0
3393,1684923411479,457.0,443.0
3394,1684923411479,445.0,402.0
3395,1684923411479,421.0,430.0
3396,1684923411479,457.0,421.0
3397,1684923411479,424.0,426.0
3398,1684923411479,419.0,403.0
3399,1684923411479,427.0,492.0
3400,1684923411479,425.0,422.0
3401,1684923411479,414.0,439.0
3402,1684923411479,392.0,410.0
3403,1684923411479,433.0,478.0
3404,1684923411479,449.0,468.0
3405,1684923411479,427.0,436.0
3406,1684923411479,454.0,459.0
3407,1684923411479,442.0,430.0
3408,1684923411479,460.0,437.0
3409,1684923411479,441.0,412.0
3410,1684923411479,445.0,447.0
3411,1684923411479,460.0,419.0
3412,1684923411479,417.0,414.0
3413,1684923411479,447.0,417.0
3414,1684923411479,448.0,491.0
3415,1684923411479,422.0,395.0
3416,1684923411479,403.0,443.0
3417,1684923411479,404.0,433.0
3418,1684923411479,430.0,488.0
3419,1684923411479,438.0,439.0
3420,1684923411479,424.0,451.0
3421,1684923411479,452.0,472.0
3422,1684923411479,438.0,428.0
3423,1684923411479,459.0,442.0
3424,1684923411479,439.0,424.0
3425,1684923411479,459.0,446.0
3426,1684923411479,456.0,395.0
3427,1684923411479,420.0,420.0
3428,1684923411479,449.0,417.0
3429,1684923411479,437.0,435.0
3430,1684923411479,412.0,372.0
3431,1684923411479,404.0,465.0
3432,1684923411479,418.0,443.0
3433,1684923411479,435.0,466.0
3434,1684923411479,411.0,415.0
3435,1684923411479,428.0,463.0
3436,1684923411479,461.0,479.0
3437,1684923411479,426.0,427.0
3438,1684923411479,458.0,448.0
3439,1684923411479,440.0,430.0
3440,1684923411479,461.0,440.0
3441,1684923411479,441.0,399.0
3442,1684923411479,421.0,429.0
3443,1684923411479,459.0,418.0
3444,1684923411479,420.0,418.0
3445,1684923411479,415.0,400.0
3446,1684923411479,426.0,494.0
3447,1684923411479,423.0,426.0
3448,1684923411479,416.0,441.0
3449,1684923411479,389.0,410.0
3450,1684923411479,429.0,479.0
3451,1684923411479,452.0,466.0
3452,1684923411479,428.0,436.0
3453,1684923411479,449.0,458.0
3454,1684923411479,443.0,427.0
3455,1684923411479,456.0,434.0
3456,1684923411479,439.0,409.0
3457,1684923411479,447.0,448.0
3458,1684923411479,458.0,415.0
3459,1684923411479,417.0,416.0
3460,1684923411479,440.0,423.0
3461,1684923411479,447.0,493.0
3462,1684923411479,423.0,398.0
3463,1684923411479,401.0,444.0
3464,1684923411479,403.0,432.0
3465,1684923411479,437.0,486.0
3466,1684923411479,433.0,436.0
3467,1684923411479,426.0,448.0
3468,1684923411479,453.0,471.0
3469,1684923411479,436.0,423.0
3470,1684923411479,456.0,441.0
3471,1684923411479,439.0,423.0
3472,1684923411479,454.0,448.0
3473,1684923411479,456.0,398.0
3474,1684923411479,423.0,421.0
3475,1684923411479,455.0,425.0
3476,1684923411479,441.0,440.0
3477,1684923411479,411.0,374.0
3478,1684923411479,407.0,467.0
3479,1684923411479,415.0,436.0
3480,1684923411479,428.0,459.0
3481,1684923411479,410.0,412.0
3482,1684923411479,429.0,463.0
3483,1684923411479,461.0,479.0
3484,1684923411479,427.0,428.0
3485,1684923411479,459.0,449.0
3486,1684923411479,445.0,435.0
3487,1684923411479,458.0,442.0
3488,1684923411479,446.0,399.0
3489,1684923411479,434.0,427.0
3490,1684923411479,460.0,418.0
3491,1684923411479,421.0,419.0
3492,1684923411479,417.0,400.0
3493,1684923411479,427.0,490.0
3494,1684923411479,420.0,422.0
3495,1684923411479,411.0,444.0
3496,1684923411479,395.0,414.0
3497,1684923411479,439.0,480.0
3498,1684923411479,452.0,469.0
3499,1684923411479,429.0,440.0
3500,1684923411479,461.0,460.0
3501,1684923411479,442.0,428.0
3502,1684923411479,460.0,432.0
3503,1684923411479,440.0,408.0
3504,1684923411479,447.0,445.0
3505,1684923411479,458.0,413.0
3506,1684923411479,412.0,412.0
3507,1684923411479,434.0,420.0
3508,1684923411479,445.0,486.0
3509,1684923411479,422.0,399.0
3510,1684923411479,406.0,447.0
3511,1684923411479,407.0,438.0
3512,1684923411479,440.0,490.0
3513,1684923411479,435.0,437.0
3514,1684923411479,425.0,452.0
3515,1684923411479,458.0,468.0
3516,1684923411479,440.0,421.0
3517,1684923411479,453.0,435.0
3518,1684923411479,442.0,422.0
3519,1684923411479,457.0,445.0
3520,1684923411479,453.0,398.0
3521,1684923411479,414.0,423.0
3522,1684923411479,450.0,424.0
3523,1684923411479,441.0,440.0
3524,1684923411479,414.0,377.0
3525,1684923411479,411.0,470.0
3526,1684923411479,415.0,437.0
3527,1684923411479,434.0,458.0
3528,1684923411479,411.0,410.0
3529,1684923411479,424.0,460.0
3530,1684923411479,455.0,473.0
3531,1684923411479,423.0,427.0
3532,1684923411479,449.0,445.0
3533,1684923411479,440.0,433.0
3534,1684923411479,458.0,442.0
3535,1684923411479,440.0,402.0
3536,1684923411479,428.0,433.0
3537,1684923411479,469.0,422.0
3538,1684923411479,427.0,421.0
3539,1684923411479,422.0,400.0
3540,1684923411479,427.0,490.0
3541,1684923411479,423.0,417.0
3542,1684923411479,409.0,439.0
3543,1684923411479,397.0,410.0
3544,1684923411479,428.0,478.0
3545,1684923411479,451.0,470.0
3546,1684923411479,422.0,438.0
3547,1684923411479,456.0,460.0
3548,1684923411479,442.0,431.0
3549,1684923411479,458.0,439.0
3550,1684923411479,445.0,415.0
3551,1684923411479,447.0,447.0
3552,1684923411479,462.0,414.0
3553,1684923411479,414.0,414.0
3554,1684923411479,447.0,415.0
3555,1684923411479,448.0,485.0
3556,1684923411479,420.0,394.0
3557,1684923411479,407.0,446.0
3558,1684923411479,403.0,436.0
3559,1684923411479,435.0,490.0
3560,1684923411479,430.0,436.0
3561,1684923411479,426.0,454.0
3562,1684923411479,458.0,473.0
3563,1684923411479,438.0,426.0
3564,1684923411479,459.0,442.0
3565,1684923411479,442.0,423.0
3566,1684923411479,454.0,445.0
3567,1684923411479,454.0,393.0
3568,1684923411479,414.0,421.0
3569,1684923411479,455.0,422.0
3570,1684923411479,433.0,434.0
3571,1684923411479,412.0,375.0
3572,1684923411479,411.0,470.0
3573,1684923411479,416.0,440.0
3574,1684923411479,432.0,462.0
3575,1684923411479,415.0,415.0
3576,1684923411479,429.0,464.0
3577,1684923411479,459.0,474.0
3578,1684923411479,430.0,427.0
3579,1684923411479,454.0,447.0
3580,1684923411479,442.0,429.0
3581,1684923411479,456.0,439.0
3582,1684923411479,436.0,400.0
3583,1684923411479,423.0,434.0
3584,1684923411479,463.0,418.0
3585,1684923411479,422.0,422.0
3586,1684923411479,418.0,406.0
3587,1684923411479,428.0,493.0
3588,1684923411479,424.0,420.0
3589,1684923411479,415.0,439.0
3590,1684923411479,392.0,414.0
3591,1684923411479,434.0,482.0
3592,1684923411479,449.0,463.0
3593,1684923411479,421.0,441.0
3594,1684923411479,451.0,457.0
3595,1684923411479,442.0,429.0
3596,1684923411479,457.0,437.0
3597,1684923411479,442.0,416.0
3598,1684923411479,444.0,450.0
3599,1684923411479,459.0,415.0
3600,1684923411479,418.0,418.0
3601,1684923411479,442.0,421.0
3602,1684923411479,446.0,480.0
3603,1684923411479,425.0,393.0
3604,1684923411479,406.0,446.0
3605,1684923411479,403.0,434.0
3606,1684923411479,437.0,485.0
3607,1684923411479,430.0,435.0
3608,1684923411479,426.0,453.0
3609,1684923411479,460.0,472.0
3610,1684923411479,435.0,425.0
3611,1684923411479,458.0,445.0
3612,1684923411479,440.0,428.0
3613,1684923411479,456.0,445.0
3614,1684923411479,451.0,395.0
3615,1684923411479,425.0,422.0
3616,1684923411479,449.0,422.0
3617,1684923411479,438.0,437.0
3618,1684923411479,411.0,374.0
3619,1684923411479,409.0,470.0
3620,1684923411479,420.0,437.0
3621,1684923411479,427.0,458.0
3622,1684923411479,406.0,412.0
3623,1684923411479,430.0,466.0
3624,1684923411479,456.0,474.0
3625,1684923411479,427.0,427.0
3626,1684923411479,455.0,452.0
3627,1684923411479,444.0,432.0
3628,1684923411479,457.0,440.0
3629,1684923411479,442.0,402.0
3630,1684923411479,431.0,434.0
3631,1684923411479,461.0,420.0
3632,1684923411479,418.0,421.0
3633,1684923411479,421.0,404.0
3634,1684923411479,428.0,495.0
3635,1684923411479,425.0,418.0
3636,1684923411479,410.0,443.0
3637,1684923411479,396.0,415.0
3638,1684923411479,433.0,484.0
3639,1684923411479,449.0,464.0
3640,1684923411479,423.0,437.0
3641,1684923411479,458.0,463.0
3642,1684923411479,442.0,431.0
3643,1684923411479,449.0,434.0
3644,1684923411479,442.0,412.0
3645,1684923411479,449.0,450.0
3646,1684923411479,459.0,414.0
3647,1684923411479,415.0,416.0
3648,1684923411479,439.0,419.0
3649,1684923411479,447.0,478.0
3650,1684923411479,424.0,392.0
3651,1684923411479,402.0,448.0
3652,1684923411479,399.0,437.0
3653,1684923411479,439.0,489.0
3654,1684923411479,430.0,431.0
3655,1684923411479,427.0,454.0
3656,1684923411479,454.0,473.0
3657,1684923411479,436.0,420.0
3658,1684923411479,455.0,442.0
3659,1684923411479,433.0,424.0
3660,1684923411479,455.0,445.0
3661,1684923411479,450.0,394.0
3662,1684923411479,420.0,422.0
3663,1684923411479,452.0,423.0
3664,1684923411479,433.0,436.0
3665,1684923411479,411.0,374.0
3666,1684923411479,411.0,474.0
3667,1684923411479,419.0,439.0
3668,1684923411479,429.0,458.0
3669,1684923411479,402.0,408.0
3670,1684923411479,429.0,465.0
3671,1684923411479,456.0,474.0
3672,1684923411479,425.0,424.0
3673,1684923411479,453.0,451.0
3674,1684923411479,442.0,430.0
3675,1684923411479,464.0,443.0
3676,1684923411479,444.0,400.0
3677,1684923411479,428.0,438.0
3678,1684923411479,467.0,419.0
3679,1684923411479,421.0,421.0
3680,1684923411479,417.0,404.0
3681,1684923411479,427.0,498.0
3682,1684923411479,422.0,420.0
3683,1684923411479,404.0,442.0
3684,1684923411479,393.0,415.0
3685,1684923411479,433.0,482.0
3686,1684923411479,448.0,461.0
3687,1684923411479,427.0,438.0
3688,1684923411479,457.0,466.0
3689,1684923411479,442.0,428.0
3690,1684923411479,460.0,439.0
3691,1684923411479,442.0,412.0
3692,1684923411479,450.0,448.0
3693,1684923411479,459.0,412.0
3694,1684923411479,420.0,412.0
3695,1684923411479,445.0,418.0
3696,1684923411479,448.0,479.0
3697,1684923411479,423.0,390.0
3698,1684923411479,402.0,451.0
3699,1684923411479,401.0,438.0
3700,1684923411479,442.0,488.0
3701,1684923411479,429.0,431.0
3702,1684923411479,426.0,455.0
3703,1684923411479,461.0,475.0
3704,1684923411479,434.0,422.0
3705,1684923411479,460.0,444.0
3706,1684923411479,446.0,424.0
3707,1684923411479,455.0,445.0
3708,1684923411479,449.0,393.0
3709,1684923411479,423.0,423.0
3710,1684923411479,456.0,421.0
3711,1684923411479,432.0,432.0
3712,1684923411479,414.0,374.0
3713,1684923411479,408.0,473.0
3714,1684923411479,422.0,438.0
3715,1684923411479,431.0,455.0
3716,1684923411479,412.0,414.0
3717,1684923411479,427.0,470.0
3718,1684923411479,452.0,474.0
3719,1684923411479,429.0,425.0
3720,1684923411479,453.0,452.0
3721,1684923411479,448.0,427.0
3722,1684923411479,464.0,440.0
3723,1684923411479,441.0,402.0
3724,1684923411479,433.0,440.0
3725,1684923411479,465.0,417.0
3726,1684923411479,427.0,420.0
3727,1684923411479,424.0,406.0
3728,1684923411479,429.0,499.0
3729,1684923411479,425.0,419.0
3730,1684923411479,409.0,441.0
3731,1684923411479,394.0,418.0
3732,1684923411479,433.0,484.0
3733,1684923411479,446.0,458.0
3734,1684923411479,425.0,439.0
3735,1684923411479,457.0,464.0
3736,1684923411479,442.0,428.0
3737,1684923411479,459.0,437.0
3738,1684923411479,442.0,413.0
3739,1684923411479,452.0,449.0
3740,1684923411479,462.0,410.0
3741,1684923411479,418.0,416.0
3742,1684923411479,445.0,420.0
3743,1684923411479,448.0,472.0
3744,1684923411479,421.0,388.0
3745,1684923411479,402.0,452.0
3746,1684923411479,410.0,439.0
3747,1684923411479,440.0,486.0
3748,1684923411479,421.0,427.0
3749,1684923411479,428.0,455.0
3750,1684923411479,450.0,477.0
3751,1684923411479,430.0,420.0
3752,1684923411479,455.0,444.0
3753,1684923411479,448.0,426.0
3754,1684923411479,461.0,446.0
3755,1684923411479,458.0,394.0
3756,1684923411479,427.0,422.0
3757,1684923411479,456.0,421.0
3758,1684923411479,430.0,430.0
3759,1684923411479,412.0,372.0
3760,1684923411479,407.0,477.0
3761,1684923411479,416.0,437.0
3762,1684923411479,426.0,453.0
3763,1684923411479,404.0,409.0
3764,1684923411479,430.0,472.0
3765,1684923411479,456.0,478.0
3766,1684923411479,431.0,427.0
3767,1684923411479,456.0,455.0
3768,1684923411479,446.0,429.0
3769,1684923411479,463.0,438.0
3770,1684923411479,446.0,401.0
3771,1684923411479,429.0,440.0
3772,1684923411479,457.0,415.0
3773,1684923411479,418.0,417.0
3774,1684923411479,424.0,408.0
3775,1684923411479,431.0,501.0
3776,1684923411479,422.0,416.0
3777,1684923411479,409.0,441.0
3778,1684923411479,398.0,422.0
3779,1684923411479,430.0,490.0
3780,1684923411479,447.0,460.0
